#X		#Y		#Wave		#Intensity
-7400.345532	4182.832333	1999.946289	-216.179825
-7400.345532	4182.832333	1998.981445	127.082359
-7400.345532	4182.832333	1998.017578	91.209274
-7400.345532	4182.832333	1997.052734	55.349628
-7400.345532	4182.832333	1996.088867	247.460693
-7400.345532	4182.832333	1995.124023	196.735153
-7400.345532	4182.832333	1994.159180	74.209831
-7400.345532	4182.832333	1993.193359	-25.981684
-7400.345532	4182.832333	1992.228516	-91.462318
-7400.345532	4182.832333	1991.262695	51.013374
-7400.345532	4182.832333	1990.296875	-115.918243
-7400.345532	4182.832333	1989.331055	76.013519
-7400.345532	4182.832333	1988.365234	109.548096
-7400.345532	4182.832333	1987.398438	-5.340102
-7400.345532	4182.832333	1986.432617	193.909393
-7400.345532	4182.832333	1985.465820	17.250095
-7400.345532	4182.832333	1984.499023	206.543839
-7400.345532	4182.832333	1983.532227	32.437244
-7400.345532	4182.832333	1982.565430	80.816154
-7400.345532	4182.832333	1981.597656	203.301483
-7400.345532	4182.832333	1980.629883	-89.259682
-7400.345532	4182.832333	1979.662109	-169.296921
-7400.345532	4182.832333	1978.694336	-222.131470
-7400.345532	4182.832333	1977.726563	1.583454
-7400.345532	4182.832333	1976.758789	62.305904
-7400.345532	4182.832333	1975.790039	-42.348076
-7400.345532	4182.832333	1974.821289	-55.653572
-7400.345532	4182.832333	1973.852539	17.404095
-7400.345532	4182.832333	1972.883789	181.710709
-7400.345532	4182.832333	1971.915039	67.286789
-7400.345532	4182.832333	1970.945313	58.934940
-7400.345532	4182.832333	1969.975586	-13.500895
-7400.345532	4182.832333	1969.005859	101.426552
-7400.345532	4182.832333	1968.036133	-7.935071
-7400.345532	4182.832333	1967.066406	-127.102371
-7400.345532	4182.832333	1966.096680	37.079906
-7400.345532	4182.832333	1965.125977	92.834312
-7400.345532	4182.832333	1964.155273	0.825966
-7400.345532	4182.832333	1963.184570	-83.751816
-7400.345532	4182.832333	1962.213867	95.102890
-7400.345532	4182.832333	1961.242188	64.697609
-7400.345532	4182.832333	1960.271484	-179.760605
-7400.345532	4182.832333	1959.299805	80.223267
-7400.345532	4182.832333	1958.328125	219.591568
-7400.345532	4182.832333	1957.356445	68.717270
-7400.345532	4182.832333	1956.384766	195.760452
-7400.345532	4182.832333	1955.412109	8.084370
-7400.345532	4182.832333	1954.439453	78.570747
-7400.345532	4182.832333	1953.467773	134.301468
-7400.345532	4182.832333	1952.495117	40.135914
-7400.345532	4182.832333	1951.521484	-176.819519
-7400.345532	4182.832333	1950.548828	-52.279945
-7400.345532	4182.832333	1949.575195	37.836746
-7400.345532	4182.832333	1948.601563	113.198318
-7400.345532	4182.832333	1947.627930	372.646454
-7400.345532	4182.832333	1946.654297	72.427132
-7400.345532	4182.832333	1945.680664	96.235535
-7400.345532	4182.832333	1944.706055	-81.140213
-7400.345532	4182.832333	1943.732422	-145.601929
-7400.345532	4182.832333	1942.757813	-11.387694
-7400.345532	4182.832333	1941.783203	14.896729
-7400.345532	4182.832333	1940.807617	-270.174377
-7400.345532	4182.832333	1939.833008	182.654297
-7400.345532	4182.832333	1938.857422	137.836151
-7400.345532	4182.832333	1937.881836	78.340561
-7400.345532	4182.832333	1936.906250	-12.972290
-7400.345532	4182.832333	1935.930664	-96.895515
-7400.345532	4182.832333	1934.955078	-2.018141
-7400.345532	4182.832333	1933.978516	-115.284386
-7400.345532	4182.832333	1933.001953	-86.524757
-7400.345532	4182.832333	1932.025391	10.759608
-7400.345532	4182.832333	1931.048828	-148.919739
-7400.345532	4182.832333	1930.072266	51.106949
-7400.345532	4182.832333	1929.094727	-62.039074
-7400.345532	4182.832333	1928.118164	133.017349
-7400.345532	4182.832333	1927.140625	112.825531
-7400.345532	4182.832333	1926.163086	46.198441
-7400.345532	4182.832333	1925.184570	145.804230
-7400.345532	4182.832333	1924.207031	40.103935
-7400.345532	4182.832333	1923.228516	149.457458
-7400.345532	4182.832333	1922.250000	70.671883
-7400.345532	4182.832333	1921.271484	-93.564499
-7400.345532	4182.832333	1920.292969	-15.979412
-7400.345532	4182.832333	1919.314453	68.904495
-7400.345532	4182.832333	1918.334961	31.702688
-7400.345532	4182.832333	1917.355469	9.161643
-7400.345532	4182.832333	1916.375977	28.116138
-7400.345532	4182.832333	1915.396484	-131.031662
-7400.345532	4182.832333	1914.416992	66.011971
-7400.345532	4182.832333	1913.436523	55.683838
-7400.345532	4182.832333	1912.457031	-142.384323
-7400.345532	4182.832333	1911.476563	-120.973068
-7400.345532	4182.832333	1910.496094	66.177719
-7400.345532	4182.832333	1909.515625	-56.232933
-7400.345532	4182.832333	1908.534180	74.795242
-7400.345532	4182.832333	1907.552734	-174.249146
-7400.345532	4182.832333	1906.572266	-84.644081
-7400.345532	4182.832333	1905.590820	-116.833168
-7400.345532	4182.832333	1904.608398	-97.886894
-7400.345532	4182.832333	1903.626953	-39.992931
-7400.345532	4182.832333	1902.644531	68.984261
-7400.345532	4182.832333	1901.663086	-43.505291
-7400.345532	4182.832333	1900.680664	155.449341
-7400.345532	4182.832333	1899.698242	55.142414
-7400.345532	4182.832333	1898.714844	-244.552719
-7400.345532	4182.832333	1897.732422	158.575653
-7400.345532	4182.832333	1896.749023	-99.699181
-7400.345532	4182.832333	1895.765625	9.142587
-7400.345532	4182.832333	1894.782227	-127.500778
-7400.345532	4182.832333	1893.798828	97.929123
-7400.345532	4182.832333	1892.814453	-38.687481
-7400.345532	4182.832333	1891.831055	84.630623
-7400.345532	4182.832333	1890.846680	195.755371
-7400.345532	4182.832333	1889.862305	163.591354
-7400.345532	4182.832333	1888.877930	-28.770777
-7400.345532	4182.832333	1887.892578	121.133171
-7400.345532	4182.832333	1886.908203	246.718994
-7400.345532	4182.832333	1885.922852	32.602795
-7400.345532	4182.832333	1884.937500	-74.708305
-7400.345532	4182.832333	1883.952148	36.280632
-7400.345532	4182.832333	1882.965820	130.246735
-7400.345532	4182.832333	1881.980469	81.150696
-7400.345532	4182.832333	1880.994141	145.982666
-7400.345532	4182.832333	1880.007813	16.920666
-7400.345532	4182.832333	1879.021484	-124.210266
-7400.345532	4182.832333	1878.035156	146.519409
-7400.345532	4182.832333	1877.047852	-188.353836
-7400.345532	4182.832333	1876.061523	14.476450
-7400.345532	4182.832333	1875.074219	-0.673430
-7400.345532	4182.832333	1874.086914	122.152893
-7400.345532	4182.832333	1873.098633	36.789761
-7400.345532	4182.832333	1872.111328	16.791676
-7400.345532	4182.832333	1871.123047	-133.848297
-7400.345532	4182.832333	1870.135742	-76.414513
-7400.345532	4182.832333	1869.147461	162.362457
-7400.345532	4182.832333	1868.158203	16.595737
-7400.345532	4182.832333	1867.169922	64.279327
-7400.345532	4182.832333	1866.180664	261.786163
-7400.345532	4182.832333	1865.192383	239.315323
-7400.345532	4182.832333	1864.203125	30.805159
-7400.345532	4182.832333	1863.213867	51.850765
-7400.345532	4182.832333	1862.223633	51.140980
-7400.345532	4182.832333	1861.234375	84.237221
-7400.345532	4182.832333	1860.244141	126.966499
-7400.345532	4182.832333	1859.253906	-28.258680
-7400.345532	4182.832333	1858.263672	-33.803669
-7400.345532	4182.832333	1857.273438	88.530647
-7400.345532	4182.832333	1856.282227	-117.285637
-7400.345532	4182.832333	1855.291992	-122.829735
-7400.345532	4182.832333	1854.300781	-41.568584
-7400.345532	4182.832333	1853.309570	-172.521301
-7400.345532	4182.832333	1852.317383	-129.870148
-7400.345532	4182.832333	1851.326172	124.858505
-7400.345532	4182.832333	1850.333984	258.993591
-7400.345532	4182.832333	1849.342773	-6.863335
-7400.345532	4182.832333	1848.350586	-31.751497
-7400.345532	4182.832333	1847.357422	225.136627
-7400.345532	4182.832333	1846.365234	135.186829
-7400.345532	4182.832333	1845.372070	78.961403
-7400.345532	4182.832333	1844.379883	13.127424
-7400.345532	4182.832333	1843.386719	120.578232
-7400.345532	4182.832333	1842.393555	-36.691532
-7400.345532	4182.832333	1841.399414	44.245232
-7400.345532	4182.832333	1840.406250	7.292939
-7400.345532	4182.832333	1839.412109	18.437689
-7400.345532	4182.832333	1838.417969	265.190765
-7400.345532	4182.832333	1837.423828	220.977859
-7400.345532	4182.832333	1836.429688	44.588055
-7400.345532	4182.832333	1835.434570	142.184738
-7400.345532	4182.832333	1834.440430	177.278854
-7400.345532	4182.832333	1833.445313	70.625992
-7400.345532	4182.832333	1832.450195	237.784348
-7400.345532	4182.832333	1831.454102	138.342148
-7400.345532	4182.832333	1830.458984	82.146309
-7400.345532	4182.832333	1829.462891	30.758066
-7400.345532	4182.832333	1828.466797	-61.414742
-7400.345532	4182.832333	1827.470703	-81.581108
-7400.345532	4182.832333	1826.474609	-27.383619
-7400.345532	4182.832333	1825.478516	-76.346687
-7400.345532	4182.832333	1824.481445	-60.559849
-7400.345532	4182.832333	1823.484375	-4.029275
-7400.345532	4182.832333	1822.487305	98.015549
-7400.345532	4182.832333	1821.490234	-8.490802
-7400.345532	4182.832333	1820.493164	-43.081509
-7400.345532	4182.832333	1819.495117	-15.384196
-7400.345532	4182.832333	1818.498047	-61.952160
-7400.345532	4182.832333	1817.500000	-39.067028
-7400.345532	4182.832333	1816.500977	81.962624
-7400.345532	4182.832333	1815.502930	-38.837368
-7400.345532	4182.832333	1814.504883	70.169060
-7400.345532	4182.832333	1813.505859	-98.465057
-7400.345532	4182.832333	1812.506836	-154.595413
-7400.345532	4182.832333	1811.507813	-45.657516
-7400.345532	4182.832333	1810.508789	24.963926
-7400.345532	4182.832333	1809.508789	157.717438
-7400.345532	4182.832333	1808.508789	-120.793640
-7400.345532	4182.832333	1807.508789	150.556717
-7400.345532	4182.832333	1806.508789	-34.659153
-7400.345532	4182.832333	1805.508789	-69.282990
-7400.345532	4182.832333	1804.508789	-206.624283
-7400.345532	4182.832333	1803.507813	33.451031
-7400.345532	4182.832333	1802.506836	-51.342335
-7400.345532	4182.832333	1801.505859	23.856049
-7400.345532	4182.832333	1800.504883	194.503296
-7400.345532	4182.832333	1799.502930	64.353600
-7400.345532	4182.832333	1798.501953	79.809975
-7400.345532	4182.832333	1797.500000	236.008652
-7400.345532	4182.832333	1796.498047	-51.527046
-7400.345532	4182.832333	1795.496094	92.699097
-7400.345532	4182.832333	1794.493164	-87.421043
-7400.345532	4182.832333	1793.491211	-179.267593
-7400.345532	4182.832333	1792.488281	41.146225
-7400.345532	4182.832333	1791.485352	70.827194
-7400.345532	4182.832333	1790.482422	81.429741
-7400.345532	4182.832333	1789.478516	-69.969696
-7400.345532	4182.832333	1788.475586	-211.786346
-7400.345532	4182.832333	1787.471680	-205.922119
-7400.345532	4182.832333	1786.467773	-200.067444
-7400.345532	4182.832333	1785.463867	10.489702
-7400.345532	4182.832333	1784.459961	123.386185
-7400.345532	4182.832333	1783.455078	112.497299
-7400.345532	4182.832333	1782.450195	-100.606659
-7400.345532	4182.832333	1781.445313	121.637947
-7400.345532	4182.832333	1780.440430	217.753723
-7400.345532	4182.832333	1779.435547	-7.151750
-7400.345532	4182.832333	1778.429688	-84.596733
-7400.345532	4182.832333	1777.424805	149.340530
-7400.345532	4182.832333	1776.418945	-42.175457
-7400.345532	4182.832333	1775.413086	84.738152
-7400.345532	4182.832333	1774.406250	-123.334358
-7400.345532	4182.832333	1773.400391	-5.961440
-7400.345532	4182.832333	1772.393555	66.243088
-7400.345532	4182.832333	1771.386719	133.668930
-7400.345532	4182.832333	1770.379883	-112.247208
-7400.345532	4182.832333	1769.373047	-142.117462
-7400.345532	4182.832333	1768.365234	58.163986
-7400.345532	4182.832333	1767.358398	-23.922489
-7400.345532	4182.832333	1766.350586	100.357956
-7400.345532	4182.832333	1765.342773	-109.767082
-7400.345532	4182.832333	1764.334961	102.200653
-7400.345532	4182.832333	1763.326172	252.449005
-7400.345532	4182.832333	1762.318359	-85.569962
-7400.345532	4182.832333	1761.309570	152.325897
-7400.345532	4182.832333	1760.300781	139.008713
-7400.345532	4182.832333	1759.291016	137.532562
-7400.345532	4182.832333	1758.282227	268.679596
-7400.345532	4182.832333	1757.272461	-0.373866
-7400.345532	4182.832333	1756.262695	-139.126801
-7400.345532	4182.832333	1755.252930	-24.577023
-7400.345532	4182.832333	1754.243164	-111.211601
-7400.345532	4182.832333	1753.233398	204.392548
-7400.345532	4182.832333	1752.222656	94.087372
-7400.345532	4182.832333	1751.211914	156.470612
-7400.345532	4182.832333	1750.201172	150.259308
-7400.345532	4182.832333	1749.190430	103.860924
-7400.345532	4182.832333	1748.179688	-8.699882
-7400.345532	4182.832333	1747.167969	-38.510571
-7400.345532	4182.832333	1746.156250	-54.130642
-7400.345532	4182.832333	1745.144531	10.575900
-7400.345532	4182.832333	1744.132813	292.550720
-7400.345532	4182.832333	1743.121094	-98.579971
-7400.345532	4182.832333	1742.108398	-43.344002
-7400.345532	4182.832333	1741.095703	16.595592
-7400.345532	4182.832333	1740.083008	-81.607605
-7400.345532	4182.832333	1739.070313	-264.716034
-7400.345532	4182.832333	1738.057617	297.743256
-7400.345532	4182.832333	1737.043945	79.254135
-7400.345532	4182.832333	1736.030273	87.246361
-7400.345532	4182.832333	1735.016602	234.351059
-7400.345532	4182.832333	1734.002930	178.671036
-7400.345532	4182.832333	1732.989258	346.924347
-7400.345532	4182.832333	1731.974609	57.961159
-7400.345532	4182.832333	1730.959961	65.970947
-7400.345532	4182.832333	1729.945313	-232.239380
-7400.345532	4182.832333	1728.930664	-78.148026
-7400.345532	4182.832333	1727.916016	-84.224464
-7400.345532	4182.832333	1726.900391	17.994835
-7400.345532	4182.832333	1725.885742	-141.077423
-7400.345532	4182.832333	1724.870117	83.501160
-7400.345532	4182.832333	1723.853516	44.476974
-7400.345532	4182.832333	1722.837891	3.128910
-7400.345532	4182.832333	1721.822266	149.961517
-7400.345532	4182.832333	1720.805664	-4.251073
-7400.345532	4182.832333	1719.789063	194.263535
-7400.345532	4182.832333	1718.772461	33.068119
-7400.345532	4182.832333	1717.754883	-151.562149
-7400.345532	4182.832333	1716.738281	234.872177
-7400.345532	4182.832333	1715.720703	101.977737
-7400.345532	4182.832333	1714.703125	204.025909
-7400.345532	4182.832333	1713.685547	-88.478134
-7400.345532	4182.832333	1712.667969	39.417091
-7400.345532	4182.832333	1711.649414	108.583511
-7400.345532	4182.832333	1710.630859	332.637146
-7400.345532	4182.832333	1709.612305	185.861542
-7400.345532	4182.832333	1708.593750	27.423979
-7400.345532	4182.832333	1707.575195	-206.000427
-7400.345532	4182.832333	1706.555664	186.843170
-7400.345532	4182.832333	1705.536133	117.632217
-7400.345532	4182.832333	1704.516602	296.958862
-7400.345532	4182.832333	1703.497070	134.027512
-7400.345532	4182.832333	1702.477539	163.333603
-7400.345532	4182.832333	1701.457031	-81.489059
-7400.345532	4182.832333	1700.437500	224.292892
-7400.345532	4182.832333	1699.416992	-74.283684
-7400.345532	4182.832333	1698.395508	275.891937
-7400.345532	4182.832333	1697.375000	185.815674
-7400.345532	4182.832333	1696.354492	37.272789
-7400.345532	4182.832333	1695.333008	-83.117470
-7400.345532	4182.832333	1694.311523	-11.579145
-7400.345532	4182.832333	1693.290039	-134.218369
-7400.345532	4182.832333	1692.267578	33.227768
-7400.345532	4182.832333	1691.246094	153.863373
-7400.345532	4182.832333	1690.223633	197.312561
-7400.345532	4182.832333	1689.201172	186.999619
-7400.345532	4182.832333	1688.178711	-150.485275
-7400.345532	4182.832333	1687.155273	133.726349
-7400.345532	4182.832333	1686.132813	226.284286
-7400.345532	4182.832333	1685.109375	178.677139
-7400.345532	4182.832333	1684.085938	175.478485
-7400.345532	4182.832333	1683.062500	190.982620
-7400.345532	4182.832333	1682.039063	211.170334
-7400.345532	4182.832333	1681.014648	142.676849
-7400.345532	4182.832333	1679.990234	207.241653
-7400.345532	4182.832333	1678.965820	201.813354
-7400.345532	4182.832333	1677.941406	257.057281
-7400.345532	4182.832333	1676.916992	491.880066
-7400.345532	4182.832333	1675.891602	397.859375
-7400.345532	4182.832333	1674.866211	413.468048
-7400.345532	4182.832333	1673.840820	251.952484
-7400.345532	4182.832333	1672.815430	381.819855
-7400.345532	4182.832333	1671.790039	367.207184
-7400.345532	4182.832333	1670.763672	343.303711
-7400.345532	4182.832333	1669.737305	291.486328
-7400.345532	4182.832333	1668.710938	465.586456
-7400.345532	4182.832333	1667.684570	458.052643
-7400.345532	4182.832333	1666.658203	341.146973
-7400.345532	4182.832333	1665.630859	578.046997
-7400.345532	4182.832333	1664.603516	356.509460
-7400.345532	4182.832333	1663.576172	237.441895
-7400.345532	4182.832333	1662.548828	451.049713
-7400.345532	4182.832333	1661.520508	652.972534
-7400.345532	4182.832333	1660.493164	524.702576
-7400.345532	4182.832333	1659.464844	698.696655
-7400.345532	4182.832333	1658.436523	665.808777
-7400.345532	4182.832333	1657.408203	895.534546
-7400.345532	4182.832333	1656.378906	588.541931
-7400.345532	4182.832333	1655.350586	660.308350
-7400.345532	4182.832333	1654.321289	471.977234
-7400.345532	4182.832333	1653.291992	471.819611
-7400.345532	4182.832333	1652.261719	490.259583
-7400.345532	4182.832333	1651.232422	826.698059
-7400.345532	4182.832333	1650.202148	835.845093
-7400.345532	4182.832333	1649.171875	592.136780
-7400.345532	4182.832333	1648.141602	807.834045
-7400.345532	4182.832333	1647.111328	1151.034912
-7400.345532	4182.832333	1646.080078	726.644043
-7400.345532	4182.832333	1645.049805	817.106018
-7400.345532	4182.832333	1644.018555	997.957397
-7400.345532	4182.832333	1642.987305	879.836182
-7400.345532	4182.832333	1641.955078	1174.197998
-7400.345532	4182.832333	1640.923828	951.917542
-7400.345532	4182.832333	1639.891602	1116.527100
-7400.345532	4182.832333	1638.859375	954.616394
-7400.345532	4182.832333	1637.827148	1112.288330
-7400.345532	4182.832333	1636.794922	1033.841064
-7400.345532	4182.832333	1635.761719	1089.680786
-7400.345532	4182.832333	1634.729492	1094.637695
-7400.345532	4182.832333	1633.696289	1164.398682
-7400.345532	4182.832333	1632.662109	1102.334351
-7400.345532	4182.832333	1631.628906	1061.146973
-7400.345532	4182.832333	1630.594727	758.759766
-7400.345532	4182.832333	1629.561523	1226.264648
-7400.345532	4182.832333	1628.527344	1245.277588
-7400.345532	4182.832333	1627.493164	1208.868408
-7400.345532	4182.832333	1626.458008	1123.996216
-7400.345532	4182.832333	1625.423828	1244.765137
-7400.345532	4182.832333	1624.388672	1150.762085
-7400.345532	4182.832333	1623.353516	1082.233765
-7400.345532	4182.832333	1622.318359	1006.847290
-7400.345532	4182.832333	1621.282227	984.610779
-7400.345532	4182.832333	1620.247070	1320.085083
-7400.345532	4182.832333	1619.210938	1224.054688
-7400.345532	4182.832333	1618.174805	1275.724854
-7400.345532	4182.832333	1617.137695	1133.699829
-7400.345532	4182.832333	1616.101563	1192.368774
-7400.345532	4182.832333	1615.064453	1375.538452
-7400.345532	4182.832333	1614.027344	1291.324829
-7400.345532	4182.832333	1612.990234	1292.448975
-7400.345532	4182.832333	1611.953125	1533.218750
-7400.345532	4182.832333	1610.916016	1092.124634
-7400.345532	4182.832333	1609.877930	1611.586304
-7400.345532	4182.832333	1608.839844	1456.249146
-7400.345532	4182.832333	1607.801758	1227.350708
-7400.345532	4182.832333	1606.763672	1502.644165
-7400.345532	4182.832333	1605.724609	1372.865723
-7400.345532	4182.832333	1604.685547	1358.220215
-7400.345532	4182.832333	1603.646484	1465.541748
-7400.345532	4182.832333	1602.607422	1577.467163
-7400.345532	4182.832333	1601.568359	1510.042847
-7400.345532	4182.832333	1600.528320	1401.308838
-7400.345532	4182.832333	1599.489258	1543.202148
-7400.345532	4182.832333	1598.449219	1634.528564
-7400.345532	4182.832333	1597.408203	1620.176025
-7400.345532	4182.832333	1596.368164	1555.340942
-7400.345532	4182.832333	1595.327148	1437.753418
-7400.345532	4182.832333	1594.287109	1416.704224
-7400.345532	4182.832333	1593.246094	1565.600098
-7400.345532	4182.832333	1592.204102	1569.877197
-7400.345532	4182.832333	1591.163086	1546.664795
-7400.345532	4182.832333	1590.121094	1516.626099
-7400.345532	4182.832333	1589.079102	1498.118164
-7400.345532	4182.832333	1588.037109	1569.116943
-7400.345532	4182.832333	1586.995117	1147.117554
-7400.345532	4182.832333	1585.953125	1364.987549
-7400.345532	4182.832333	1584.910156	1216.066650
-7400.345532	4182.832333	1583.867188	1349.142456
-7400.345532	4182.832333	1582.824219	1459.303101
-7400.345532	4182.832333	1581.781250	1120.461792
-7400.345532	4182.832333	1580.737305	1125.366699
-7400.345532	4182.832333	1579.693359	1123.450684
-7400.345532	4182.832333	1578.649414	1281.854614
-7400.345532	4182.832333	1577.605469	1305.192993
-7400.345532	4182.832333	1576.561523	1198.122192
-7400.345532	4182.832333	1575.516602	1045.380615
-7400.345532	4182.832333	1574.472656	1357.162720
-7400.345532	4182.832333	1573.427734	1394.400513
-7400.345532	4182.832333	1572.381836	1308.186279
-7400.345532	4182.832333	1571.336914	1340.951904
-7400.345532	4182.832333	1570.291016	1229.743408
-7400.345532	4182.832333	1569.246094	1552.875488
-7400.345532	4182.832333	1568.200195	1300.102905
-7400.345532	4182.832333	1567.153320	1289.649780
-7400.345532	4182.832333	1566.107422	1382.042480
-7400.345532	4182.832333	1565.060547	1435.629883
-7400.345532	4182.832333	1564.013672	1370.520874
-7400.345532	4182.832333	1562.966797	1326.036987
-7400.345532	4182.832333	1561.919922	1448.236816
-7400.345532	4182.832333	1560.872070	1419.838257
-7400.345532	4182.832333	1559.825195	1621.932373
-7400.345532	4182.832333	1558.777344	1329.024048
-7400.345532	4182.832333	1557.729492	1287.146729
-7400.345532	4182.832333	1556.680664	1311.464600
-7400.345532	4182.832333	1555.632813	1192.209961
-7400.345532	4182.832333	1554.583984	1471.919556
-7400.345532	4182.832333	1553.535156	1284.428955
-7400.345532	4182.832333	1552.486328	1345.403564
-7400.345532	4182.832333	1551.436523	1424.633667
-7400.345532	4182.832333	1550.387695	1198.714600
-7400.345532	4182.832333	1549.337891	1205.191772
-7400.345532	4182.832333	1548.288086	1421.162842
-7400.345532	4182.832333	1547.238281	1245.619995
-7400.345532	4182.832333	1546.187500	1359.208374
-7400.345532	4182.832333	1545.136719	1404.552612
-7400.345532	4182.832333	1544.086914	913.099182
-7400.345532	4182.832333	1543.035156	1295.222534
-7400.345532	4182.832333	1541.984375	1067.862671
-7400.345532	4182.832333	1540.933594	820.189575
-7400.345532	4182.832333	1539.881836	736.323181
-7400.345532	4182.832333	1538.830078	902.521606
-7400.345532	4182.832333	1537.778320	900.580627
-7400.345532	4182.832333	1536.725586	880.524963
-7400.345532	4182.832333	1535.673828	615.250793
-7400.345532	4182.832333	1534.621094	738.428467
-7400.345532	4182.832333	1533.568359	816.210144
-7400.345532	4182.832333	1532.515625	560.358582
-7400.345532	4182.832333	1531.461914	649.608521
-7400.345532	4182.832333	1530.409180	443.921112
-7400.345532	4182.832333	1529.355469	524.199646
-7400.345532	4182.832333	1528.301758	627.184814
-7400.345532	4182.832333	1527.247070	630.415344
-7400.345532	4182.832333	1526.193359	354.846130
-7400.345532	4182.832333	1525.138672	503.312439
-7400.345532	4182.832333	1524.083984	221.196396
-7400.345532	4182.832333	1523.029297	310.834900
-7400.345532	4182.832333	1521.974609	178.495529
-7400.345532	4182.832333	1520.918945	379.204559
-7400.345532	4182.832333	1519.863281	102.097862
-7400.345532	4182.832333	1518.807617	289.274994
-7400.345532	4182.832333	1517.751953	360.994659
-7400.345532	4182.832333	1516.696289	-42.501911
-7400.345532	4182.832333	1515.639648	94.990524
-7400.345532	4182.832333	1514.583008	189.503998
-7400.345532	4182.832333	1513.526367	229.757187
-7400.345532	4182.832333	1512.469727	86.887756
-7400.345532	4182.832333	1511.412109	36.829678
-7400.345532	4182.832333	1510.355469	131.511688
-7400.345532	4182.832333	1509.297852	90.620262
-7400.345532	4182.832333	1508.240234	180.853088
-7400.345532	4182.832333	1507.181641	-101.632019
-7400.345532	4182.832333	1506.124023	-20.314955
-7400.345532	4182.832333	1505.065430	103.934509
-7400.345532	4182.832333	1504.006836	74.668335
-7400.345532	4182.832333	1502.948242	142.533890
-7400.345532	4182.832333	1501.888672	-89.722885
-7400.345532	4182.832333	1500.830078	23.390236
-7400.345532	4182.832333	1499.770508	-219.914963
-7400.345532	4182.832333	1498.710938	12.837020
-7400.345532	4182.832333	1497.650391	-2.495348
-7400.345532	4182.832333	1496.590820	-263.516022
-7400.345532	4182.832333	1495.530273	-240.352600
-7400.345532	4182.832333	1494.469727	33.016037
-7400.345532	4182.832333	1493.409180	-96.994186
-7400.345532	4182.832333	1492.348633	-148.048462
-7400.345532	4182.832333	1491.287109	-18.835886
-7400.345532	4182.832333	1490.225586	-4.464406
-7400.345532	4182.832333	1489.164063	-156.648041
-7400.345532	4182.832333	1488.102539	-126.384003
-7400.345532	4182.832333	1487.041016	-33.061119
-7400.345532	4182.832333	1485.978516	-126.473724
-7400.345532	4182.832333	1484.916016	34.390076
-7400.345532	4182.832333	1483.853516	-36.367352
-7400.345532	4182.832333	1482.791016	36.843678
-7400.345532	4182.832333	1481.727539	148.305191
-7400.345532	4182.832333	1480.664063	-12.212361
-7400.345532	4182.832333	1479.600586	88.067223
-7400.345532	4182.832333	1478.537109	143.470901
-7400.345532	4182.832333	1477.473633	84.280716
-7400.345532	4182.832333	1476.409180	213.860962
-7400.345532	4182.832333	1475.344727	242.363663
-7400.345532	4182.832333	1474.280273	380.842316
-7400.345532	4182.832333	1473.215820	447.522339
-7400.345532	4182.832333	1472.151367	337.072479
-7400.345532	4182.832333	1471.085938	432.947052
-7400.345532	4182.832333	1470.020508	302.482422
-7400.345532	4182.832333	1468.955078	696.609985
-7400.345532	4182.832333	1467.888672	447.494263
-7400.345532	4182.832333	1466.823242	745.108398
-7400.345532	4182.832333	1465.756836	621.765015
-7400.345532	4182.832333	1464.690430	670.832397
-7400.345532	4182.832333	1463.624023	657.079834
-7400.345532	4182.832333	1462.556641	764.133911
-7400.345532	4182.832333	1461.490234	728.437073
-7400.345532	4182.832333	1460.422852	951.165649
-7400.345532	4182.832333	1459.355469	804.134949
-7400.345532	4182.832333	1458.287109	956.149414
-7400.345532	4182.832333	1457.219727	858.084778
-7400.345532	4182.832333	1456.151367	1190.494629
-7400.345532	4182.832333	1455.083008	1176.565186
-7400.345532	4182.832333	1454.014648	1122.241455
-7400.345532	4182.832333	1452.945313	1214.510864
-7400.345532	4182.832333	1451.876953	1033.673218
-7400.345532	4182.832333	1450.807617	1062.002441
-7400.345532	4182.832333	1449.738281	1101.667969
-7400.345532	4182.832333	1448.668945	1422.554077
-7400.345532	4182.832333	1447.598633	1500.042969
-7400.345532	4182.832333	1446.528320	1411.011841
-7400.345532	4182.832333	1445.458008	1352.628296
-7400.345532	4182.832333	1444.387695	1495.043579
-7400.345532	4182.832333	1443.317383	1546.670288
-7400.345532	4182.832333	1442.246094	1579.675049
-7400.345532	4182.832333	1441.174805	1422.484619
-7400.345532	4182.832333	1440.103516	1267.253906
-7400.345532	4182.832333	1439.032227	1409.518677
-7400.345532	4182.832333	1437.960938	1388.797363
-7400.345532	4182.832333	1436.888672	1438.859009
-7400.345532	4182.832333	1435.816406	1403.901611
-7400.345532	4182.832333	1434.744141	1218.728760
-7400.345532	4182.832333	1433.670898	1075.945557
-7400.345532	4182.832333	1432.598633	1093.429443
-7400.345532	4182.832333	1431.525391	1112.777100
-7400.345532	4182.832333	1430.452148	1229.590576
-7400.345532	4182.832333	1429.378906	923.291443
-7400.345532	4182.832333	1428.304688	1160.347412
-7400.345532	4182.832333	1427.231445	1083.425659
-7400.345532	4182.832333	1426.157227	1013.041931
-7400.345532	4182.832333	1425.083008	1107.136108
-7400.345532	4182.832333	1424.007813	878.597046
-7400.345532	4182.832333	1422.933594	880.259338
-7400.345532	4182.832333	1421.858398	865.206665
-7400.345532	4182.832333	1420.783203	957.353210
-7400.345532	4182.832333	1419.708008	851.244568
-7400.345532	4182.832333	1418.631836	919.383972
-7400.345532	4182.832333	1417.555664	849.096558
-7400.345532	4182.832333	1416.479492	1205.831299
-7400.345532	4182.832333	1415.403320	1009.695190
-7400.345532	4182.832333	1414.327148	1028.984741
-7400.345532	4182.832333	1413.250000	981.336182
-7400.345532	4182.832333	1412.173828	779.215271
-7400.345532	4182.832333	1411.096680	793.834290
-7400.345532	4182.832333	1410.018555	869.087402
-7400.345532	4182.832333	1408.941406	791.544861
-7400.345532	4182.832333	1407.863281	757.556580
-7400.345532	4182.832333	1406.785156	893.313843
-7400.345532	4182.832333	1405.707031	707.718445
-7400.345532	4182.832333	1404.628906	673.820923
-7400.345532	4182.832333	1403.549805	522.930481
-7400.345532	4182.832333	1402.470703	567.344543
-7400.345532	4182.832333	1401.391602	656.629211
-7400.345532	4182.832333	1400.312500	843.704834
-7400.345532	4182.832333	1399.233398	516.494934
-7400.345532	4182.832333	1398.153320	503.878326
-7400.345532	4182.832333	1397.073242	602.515503
-7400.345532	4182.832333	1395.993164	666.739014
-7400.345532	4182.832333	1394.913086	373.658875
-7400.345532	4182.832333	1393.832031	590.766296
-7400.345532	4182.832333	1392.750977	481.559479
-7400.345532	4182.832333	1391.669922	514.198242
-7400.345532	4182.832333	1390.588867	447.419434
-7400.345532	4182.832333	1389.506836	533.914612
-7400.345532	4182.832333	1388.425781	408.971375
-7400.345532	4182.832333	1387.343750	592.085510
-7400.345532	4182.832333	1386.261719	855.361572
-7400.345532	4182.832333	1385.178711	785.798767
-7400.345532	4182.832333	1384.096680	567.754822
-7400.345532	4182.832333	1383.013672	608.785278
-7400.345532	4182.832333	1381.930664	941.587341
-7400.345532	4182.832333	1380.846680	741.702332
-7400.345532	4182.832333	1379.763672	741.382324
-7400.345532	4182.832333	1378.679688	677.947632
-7400.345532	4182.832333	1377.595703	687.582764
-7400.345532	4182.832333	1376.511719	606.805725
-7400.345532	4182.832333	1375.427734	622.956055
-7400.345532	4182.832333	1374.342773	603.025269
-7400.345532	4182.832333	1373.257813	623.921387
-7400.345532	4182.832333	1372.172852	395.459381
-7400.345532	4182.832333	1371.087891	796.626099
-7400.345532	4182.832333	1370.001953	695.350830
-7400.345532	4182.832333	1368.916992	406.188843
-7400.345532	4182.832333	1367.831055	682.543945
-7400.345532	4182.832333	1366.744141	738.704834
-7400.345532	4182.832333	1365.658203	492.070435
-7400.345532	4182.832333	1364.571289	626.560303
-7400.345532	4182.832333	1363.484375	581.720886
-7400.345532	4182.832333	1362.397461	661.901367
-7400.345532	4182.832333	1361.310547	499.113922
-7400.345532	4182.832333	1360.222656	552.438416
-7400.345532	4182.832333	1359.135742	414.665070
-7400.345532	4182.832333	1358.047852	616.134644
-7400.345532	4182.832333	1356.958984	458.654297
-7400.345532	4182.832333	1355.871094	475.380493
-7400.345532	4182.832333	1354.782227	435.619781
-7400.345532	4182.832333	1353.693359	577.229004
-7400.345532	4182.832333	1352.604492	467.329773
-7400.345532	4182.832333	1351.515625	307.500702
-7400.345532	4182.832333	1350.425781	310.589325
-7400.345532	4182.832333	1349.335938	532.451416
-7400.345532	4182.832333	1348.246094	542.306152
-7400.345532	4182.832333	1347.156250	624.080933
-7400.345532	4182.832333	1346.066406	599.075073
-7400.345532	4182.832333	1344.975586	416.116608
-7400.345532	4182.832333	1343.884766	491.390320
-7400.345532	4182.832333	1342.793945	635.137939
-7400.345532	4182.832333	1341.702148	473.387665
-7400.345532	4182.832333	1340.611328	507.426514
-7400.345532	4182.832333	1339.519531	257.017395
-7400.345532	4182.832333	1338.427734	500.292358
-7400.345532	4182.832333	1337.334961	575.256226
-7400.345532	4182.832333	1336.243164	459.914612
-7400.345532	4182.832333	1335.150391	516.216125
-7400.345532	4182.832333	1334.057617	521.762390
-7400.345532	4182.832333	1332.964844	427.639008
-7400.345532	4182.832333	1331.871094	402.164246
-7400.345532	4182.832333	1330.778320	593.750916
-7400.345532	4182.832333	1329.684570	535.219788
-7400.345532	4182.832333	1328.590820	418.267151
-7400.345532	4182.832333	1327.496094	389.740753
-7400.345532	4182.832333	1326.402344	558.012268
-7400.345532	4182.832333	1325.307617	600.114441
-7400.345532	4182.832333	1324.212891	509.694733
-7400.345532	4182.832333	1323.117188	469.995422
-7400.345532	4182.832333	1322.022461	389.979980
-7400.345532	4182.832333	1320.926758	526.371582
-7400.345532	4182.832333	1319.831055	374.007141
-7400.345532	4182.832333	1318.735352	591.454651
-7400.345532	4182.832333	1317.638672	561.078369
-7400.345532	4182.832333	1316.542969	564.300781
-7400.345532	4182.832333	1315.446289	732.506226
-7400.345532	4182.832333	1314.349609	706.269836
-7400.345532	4182.832333	1313.251953	793.908203
-7400.345532	4182.832333	1312.155273	651.180603
-7400.345532	4182.832333	1311.057617	820.027100
-7400.345532	4182.832333	1309.959961	726.814880
-7400.345532	4182.832333	1308.862305	611.151917
-7400.345532	4182.832333	1307.763672	920.082214
-7400.345532	4182.832333	1306.665039	907.793335
-7400.345532	4182.832333	1305.566406	880.537842
-7400.345532	4182.832333	1304.467773	779.949097
-7400.345532	4182.832333	1303.369141	1000.641846
-7400.345532	4182.832333	1302.269531	733.709961
-7400.345532	4182.832333	1301.169922	722.595886
-7400.345532	4182.832333	1300.070313	780.782593
-7400.345532	4182.832333	1298.970703	715.948364
-7400.345532	4182.832333	1297.870117	808.463379
-7400.345532	4182.832333	1296.769531	733.967468
-7400.345532	4182.832333	1295.668945	802.666138
-7400.345532	4182.832333	1294.568359	583.985779
-7400.345532	4182.832333	1293.466797	704.704834
-7400.345532	4182.832333	1292.366211	615.958618
-7400.345532	4182.832333	1291.264648	556.177368
-7400.345532	4182.832333	1290.162109	438.864532
-7400.345532	4182.832333	1289.060547	400.915375
-7400.345532	4182.832333	1287.958008	241.167236
-7400.345532	4182.832333	1286.855469	483.825348
-7400.345532	4182.832333	1285.752930	427.893219
-7400.345532	4182.832333	1284.650391	211.040436
-7400.345532	4182.832333	1283.546875	355.606750
-7400.345532	4182.832333	1282.444336	363.309814
-7400.345532	4182.832333	1281.339844	285.674713
-7400.345532	4182.832333	1280.236328	343.575043
-7400.345532	4182.832333	1279.132813	231.424820
-7400.345532	4182.832333	1278.028320	27.729803
-7400.345532	4182.832333	1276.923828	194.562561
-7400.345532	4182.832333	1275.819336	422.244995
-7400.345532	4182.832333	1274.713867	241.684204
-7400.345532	4182.832333	1273.608398	234.529922
-7400.345532	4182.832333	1272.503906	190.607758
-7400.345532	4182.832333	1271.397461	152.081085
-7400.345532	4182.832333	1270.291992	141.893234
-7400.345532	4182.832333	1269.185547	321.391876
-7400.345532	4182.832333	1268.080078	212.366333
-7400.345532	4182.832333	1266.972656	152.571640
-7400.345532	4182.832333	1265.866211	165.276489
-7400.345532	4182.832333	1264.759766	110.085159
-7400.345532	4182.832333	1263.652344	162.595093
-7400.345532	4182.832333	1262.544922	193.416153
-7400.345532	4182.832333	1261.436523	103.686752
-7400.345532	4182.832333	1260.329102	99.231575
-7400.345532	4182.832333	1259.220703	94.549454
-7400.345532	4182.832333	1258.112305	33.960289
-7400.345532	4182.832333	1257.003906	8.212775
-7400.345532	4182.832333	1255.895508	35.962837
-7400.345532	4182.832333	1254.786133	35.869305
-7400.345532	4182.832333	1253.676758	32.743370
-7400.345532	4182.832333	1252.567383	27.477299
-7400.345532	4182.832333	1251.458008	25.167454
-7400.345532	4182.832333	1250.347656	120.803658
-7400.345532	4182.832333	1249.237305	-61.857498
-7400.345532	4182.832333	1248.126953	109.687584
-7400.345532	4182.832333	1247.016602	68.093887
-7400.345532	4182.832333	1245.905273	157.098221
-7400.345532	4182.832333	1244.793945	163.145752
-7400.345532	4182.832333	1243.682617	108.437355
-7400.345532	4182.832333	1242.571289	55.622150
-7400.345532	4182.832333	1241.459961	74.337563
-7400.345532	4182.832333	1240.347656	-4.605472
-7400.345532	4182.832333	1239.235352	61.490288
-7400.345532	4182.832333	1238.123047	-51.014114
-7400.345532	4182.832333	1237.009766	-8.399570
-7400.345532	4182.832333	1235.897461	225.827499
-7400.345532	4182.832333	1234.784180	-38.206970
-7400.345532	4182.832333	1233.670898	-12.674737
-7400.345532	4182.832333	1232.556641	46.052387
-7400.345532	4182.832333	1231.443359	120.669350
-7400.345532	4182.832333	1230.329102	101.017761
-7400.345532	4182.832333	1229.214844	213.213043
-7400.345532	4182.832333	1228.099609	53.422386
-7400.345532	4182.832333	1226.985352	-127.662971
-7400.345532	4182.832333	1225.870117	-60.321720
-7400.345532	4182.832333	1224.754883	-36.800621
-7400.345532	4182.832333	1223.639648	21.484077
-7400.345532	4182.832333	1222.523438	-30.620865
-7400.345532	4182.832333	1221.408203	64.150276
-7400.345532	4182.832333	1220.291992	-27.710899
-7400.345532	4182.832333	1219.174805	19.987684
-7400.345532	4182.832333	1218.058594	148.663284
-7400.345532	4182.832333	1216.941406	19.204821
-7400.345532	4182.832333	1215.824219	-38.497540
-7400.345532	4182.832333	1214.707031	130.147797
-7400.345532	4182.832333	1213.589844	184.203140
-7400.345532	4182.832333	1212.471680	232.714264
-7400.345532	4182.832333	1211.353516	115.026558
-7400.345532	4182.832333	1210.235352	129.910324
-7400.345532	4182.832333	1209.117188	242.574356
-7400.345532	4182.832333	1207.998047	102.031166
-7400.345532	4182.832333	1206.878906	87.285416
-7400.345532	4182.832333	1205.759766	-30.942366
-7400.345532	4182.832333	1204.640625	-11.660158
-7400.345532	4182.832333	1203.520508	108.989151
-7400.345532	4182.832333	1202.401367	-75.836136
-7400.345532	4182.832333	1201.281250	-65.962669
-7400.345532	4182.832333	1200.160156	41.161072
-7400.345532	4182.832333	1199.040039	-145.186310
-7400.345532	4182.832333	1197.918945	-52.363865
-7400.345532	4182.832333	1196.797852	23.170502
-7400.345532	4182.832333	1195.676758	-66.662453
-7400.345532	4182.832333	1194.555664	-73.750565
-7400.345532	4182.832333	1193.433594	-147.107056
-7400.345532	4182.832333	1192.311523	-172.796173
-7400.345532	4182.832333	1191.189453	-110.361015
-7400.345532	4182.832333	1190.066406	-86.783615
-7400.345532	4182.832333	1188.944336	-57.569012
-7400.345532	4182.832333	1187.821289	-222.462463
-7400.345532	4182.832333	1186.698242	-162.313202
-7400.345532	4182.832333	1185.574219	-36.086788
-7400.345532	4182.832333	1184.451172	-154.302628
-7400.345532	4182.832333	1183.327148	-78.523613
-7400.345532	4182.832333	1182.203125	-70.006035
-7400.345532	4182.832333	1181.078125	130.220947
-7400.345532	4182.832333	1179.954102	-124.643074
-7400.345532	4182.832333	1178.829102	80.437447
-7400.345532	4182.832333	1177.704102	-179.350327
-7400.345532	4182.832333	1176.579102	-127.862907
-7400.345532	4182.832333	1175.453125	19.573565
-7400.345532	4182.832333	1174.327148	32.606319
-7400.345532	4182.832333	1173.201172	-134.251022
-7400.345532	4182.832333	1172.075195	-56.485832
-7400.345532	4182.832333	1170.949219	6.806139
-7400.345532	4182.832333	1169.822266	-69.461159
-7400.345532	4182.832333	1168.695313	-90.316086
-7400.345532	4182.832333	1167.568359	80.173920
-7400.345532	4182.832333	1166.440430	-16.062607
-7400.345532	4182.832333	1165.313477	-114.165077
-7400.345532	4182.832333	1164.185547	-77.575272
-7400.345532	4182.832333	1163.057617	-55.105553
-7400.345532	4182.832333	1161.928711	-249.270874
-7400.345532	4182.832333	1160.800781	-80.683037
-7400.345532	4182.832333	1159.671875	-87.801620
-7400.345532	4182.832333	1158.541992	-248.652130
-7400.345532	4182.832333	1157.413086	-59.182079
-7400.345532	4182.832333	1156.283203	-157.813171
-7400.345532	4182.832333	1155.154297	-91.402939
-7400.345532	4182.832333	1154.023438	-17.694984
-7400.345532	4182.832333	1152.893555	-146.727921
-7400.345532	4182.832333	1151.763672	40.526096
-7400.345532	4182.832333	1150.632813	-11.321186
-7400.345532	4182.832333	1149.501953	-139.779968
-7400.345532	4182.832333	1148.370117	-142.652634
-7400.345532	4182.832333	1147.239258	122.712524
-7400.345532	4182.832333	1146.107422	-91.647736
-7400.345532	4182.832333	1144.975586	-45.549122
-7400.345532	4182.832333	1143.843750	-243.996475
-7400.345532	4182.832333	1142.710938	-283.255219
-7400.345532	4182.832333	1141.578125	24.801426
-7400.345532	4182.832333	1140.445313	-203.238602
-7400.345532	4182.832333	1139.312500	-117.928955
-7400.345532	4182.832333	1138.178711	-293.801758
-7400.345532	4182.832333	1137.045898	-128.385391
-7400.345532	4182.832333	1135.912109	-112.251038
-7400.345532	4182.832333	1134.777344	-141.521744
-7400.345532	4182.832333	1133.643555	-81.588982
-7400.345532	4182.832333	1132.508789	19.763992
-7400.345532	4182.832333	1131.374023	68.425003
-7400.345532	4182.832333	1130.239258	272.738861
-7400.345532	4182.832333	1129.104492	106.253517
-7400.345532	4182.832333	1127.968750	195.474670
-7400.345532	4182.832333	1126.833008	115.915283
-7400.345532	4182.832333	1125.697266	4.046160
-7400.345532	4182.832333	1124.560547	61.921761
-7400.345532	4182.832333	1123.424805	114.516457
-7400.345532	4182.832333	1122.288086	83.584541
-7400.345532	4182.832333	1121.151367	179.160629
-7400.345532	4182.832333	1120.013672	100.315689
-7400.345532	4182.832333	1118.876953	102.933517
-7400.345532	4182.832333	1117.739258	77.787704
-7400.345532	4182.832333	1116.601563	-48.898499
-7400.345532	4182.832333	1115.462891	131.928162
-7400.345532	4182.832333	1114.324219	-49.051975
-7400.345532	4182.832333	1113.186523	62.574928
-7400.345532	4182.832333	1112.046875	101.262215
-7400.345532	4182.832333	1110.908203	157.104675
-7400.345532	4182.832333	1109.769531	-89.671616
-7400.345532	4182.832333	1108.629883	-19.009636
-7400.345532	4182.832333	1107.490234	-10.879251
-7400.345532	4182.832333	1106.349609	176.786270
-7400.345532	4182.832333	1105.209961	242.911514
-7400.345532	4182.832333	1104.069336	10.729381
-7400.345532	4182.832333	1102.928711	122.360947
-7400.345532	4182.832333	1101.787109	-44.515823
-7400.345532	4182.832333	1100.646484	218.824661
-7400.345532	4182.832333	1099.504883	10.512568
-7400.345532	4182.832333	1098.363281	105.777489
-7400.345532	4182.832333	1097.221680	215.782684
-7400.345532	4182.832333	1096.079102	-64.045967
-7400.345532	4182.832333	1094.936523	-13.277585
-7400.345532	4182.832333	1093.793945	291.891724
-7400.345532	4182.832333	1092.651367	76.839073
-7400.345532	4182.832333	1091.507813	272.738342
-7400.345532	4182.832333	1090.364258	163.386673
-7400.345532	4182.832333	1089.220703	126.009888
-7400.345532	4182.832333	1088.077148	110.944107
-7400.345532	4182.832333	1086.933594	126.476639
-7400.345532	4182.832333	1085.789063	348.257751
-7400.345532	4182.832333	1084.644531	142.745941
-7400.345532	4182.832333	1083.499023	79.003532
-7400.345532	4182.832333	1082.354492	116.784370
-7400.345532	4182.832333	1081.208984	-69.111313
-7400.345532	4182.832333	1080.063477	-30.258131
-7400.345532	4182.832333	1078.917969	36.754292
-7400.345532	4182.832333	1077.771484	90.957901
-7400.345532	4182.832333	1076.625977	74.067749
-7400.345532	4182.832333	1075.479492	-55.520473
-7400.345532	4182.832333	1074.332031	116.912140
-7400.345532	4182.832333	1073.185547	13.757535
-7400.345532	4182.832333	1072.038086	115.979637
-7400.345532	4182.832333	1070.890625	53.814598
-7400.345532	4182.832333	1069.743164	73.036072
-7400.345532	4182.832333	1068.594727	117.909248
-7400.345532	4182.832333	1067.447266	150.639786
-7400.345532	4182.832333	1066.298828	185.140610
-7400.345532	4182.832333	1065.149414	102.274200
-7400.345532	4182.832333	1064.000977	350.842072
-7400.345532	4182.832333	1062.851563	395.511871
-7400.345532	4182.832333	1061.702148	103.558060
-7400.345532	4182.832333	1060.552734	283.780670
-7400.345532	4182.832333	1059.402344	231.137100
-7400.345532	4182.832333	1058.252930	269.397827
-7400.345532	4182.832333	1057.102539	254.911011
-7400.345532	4182.832333	1055.951172	-126.832962
-7400.345532	4182.832333	1054.800781	105.782249
-7400.345532	4182.832333	1053.649414	-30.050625
-7400.345532	4182.832333	1052.498047	34.793606
-7400.345532	4182.832333	1051.346680	-38.206284
-7400.345532	4182.832333	1050.194336	97.246788
-7400.345532	4182.832333	1049.042969	56.027176
-7400.345532	4182.832333	1047.890625	-156.770248
-7400.345532	4182.832333	1046.738281	235.998367
-7400.345532	4182.832333	1045.584961	26.801914
-7400.345532	4182.832333	1044.431641	-6.257700
-7400.345532	4182.832333	1043.278320	182.655716
-7400.345532	4182.832333	1042.125000	146.419403
-7400.345532	4182.832333	1040.971680	219.977921
-7400.345532	4182.832333	1039.817383	21.149700
-7400.345532	4182.832333	1038.663086	128.754517
-7400.345532	4182.832333	1037.508789	90.923485
-7400.345532	4182.832333	1036.353516	211.749374
-7400.345532	4182.832333	1035.198242	229.688751
-7400.345532	4182.832333	1034.042969	124.646172
-7400.345532	4182.832333	1032.887695	118.657051
-7400.345532	4182.832333	1031.732422	12.879863
-7400.345532	4182.832333	1030.576172	272.757874
-7400.345532	4182.832333	1029.419922	62.631527
-7400.345532	4182.832333	1028.263672	97.850677
-7400.345532	4182.832333	1027.106445	140.897629
-7400.345532	4182.832333	1025.949219	114.678291
-7400.345532	4182.832333	1024.792969	-6.965836
-7400.345532	4182.832333	1023.634766	20.677128
-7400.345532	4182.832333	1022.477539	188.874359
-7400.345532	4182.832333	1021.319336	-154.077911
-7400.345532	4182.832333	1020.161133	88.988998
-7400.345532	4182.832333	1019.002930	-29.381670
-7400.345532	4182.832333	1017.843750	28.613531
-7400.345532	4182.832333	1016.684570	4.730241
-7400.345532	4182.832333	1015.525391	-158.877960
-7400.345532	4182.832333	1014.366211	-155.451035
-7400.345532	4182.832333	1013.207031	-215.242630
-7400.345532	4182.832333	1012.046875	-44.195465
-7400.345532	4182.832333	1010.886719	-13.896598
-7400.345532	4182.832333	1009.726563	101.750908
-7400.345532	4182.832333	1008.565430	142.396103
-7400.345532	4182.832333	1007.404297	246.505676
-7400.345532	4182.832333	1006.243164	244.000763
-7400.345532	4182.832333	1005.082031	-13.076386
-7400.345532	4182.832333	1003.920898	138.220779
-7400.345532	4182.832333	1002.758789	96.094963
-7400.345532	4182.832333	1001.596680	82.662300
-7400.345532	4182.832333	1000.433594	284.526855
-7400.345532	4182.832333	999.271484	133.823029
-7400.345532	4182.832333	998.108398	181.456955
-7400.345532	4182.832333	996.945313	40.742023
-7400.345532	4182.832333	995.782227	15.824019
-7400.345532	4182.832333	994.618164	212.753220
-7400.345532	4182.832333	993.454102	188.263977
-7400.345532	4182.832333	992.290039	293.668060
-7400.345532	4182.832333	991.125977	403.333893
-7400.345532	4182.832333	989.960938	269.635895
-7400.345532	4182.832333	988.796875	372.058319
-7400.345532	4182.832333	987.630859	225.662491
-7400.345532	4182.832333	986.465820	650.915833
-7400.345532	4182.832333	985.300781	662.699646
-7400.345532	4182.832333	984.134766	560.861023
-7400.345532	4182.832333	982.968750	667.118713
-7400.345532	4182.832333	981.801758	375.268951
-7400.345532	4182.832333	980.635742	564.223877
-7400.345532	4182.832333	979.468750	305.198792
-7400.345532	4182.832333	978.301758	40.880253
-7400.345532	4182.832333	977.133789	-207.651291
-7400.345532	4182.832333	975.966797	80.172501
-7400.345532	4182.832333	974.798828	-82.201668
-7400.345532	4182.832333	973.630859	53.897194
-7400.345532	4182.832333	972.461914	34.239899
-7400.345532	4182.832333	971.293945	-8.032911
-7400.345532	4182.832333	970.125000	30.456085
-7400.345532	4182.832333	968.956055	-145.135773
-7400.345532	4182.832333	967.786133	78.856812
-7400.345532	4182.832333	966.617188	-29.462591
-7400.345532	4182.832333	965.447266	-225.446198
-7400.345532	4182.832333	964.276367	-198.370209
-7400.345532	4182.832333	963.106445	-185.779480
-7400.345532	4182.832333	961.935547	35.626087
-7400.345532	4182.832333	960.764648	8.095639
-7400.345532	4182.832333	959.593750	-47.779835
-7400.345532	4182.832333	958.422852	208.166840
-7400.345532	4182.832333	957.250977	-27.774126
-7400.345532	4182.832333	956.079102	-14.173871
-7400.345532	4182.832333	954.907227	110.735336
-7400.345532	4182.832333	953.734375	110.587463
-7400.345532	4182.832333	952.562500	61.132626
-7400.345532	4182.832333	951.389648	53.631744
-7400.345532	4182.832333	950.215820	71.847649
-7400.345532	4182.832333	949.042969	-120.365028
-7400.345532	4182.832333	947.869141	-105.550087
-7400.345532	4182.832333	946.695313	-99.781624
-7400.345532	4182.832333	945.521484	223.539139
-7400.345532	4182.832333	944.346680	77.401581
-7400.345532	4182.832333	943.172852	59.404465
-7400.345532	4182.832333	941.998047	-177.726517
-7400.345532	4182.832333	940.822266	-10.641641
-7400.345532	4182.832333	939.647461	238.990295
-7400.345532	4182.832333	938.471680	187.152756
-7400.345532	4182.832333	937.295898	236.728683
-7400.345532	4182.832333	936.119141	103.830452
-7400.345532	4182.832333	934.943359	283.672089
-7400.345532	4182.832333	933.766602	213.398163
-7400.345532	4182.832333	932.589844	145.638672
-7400.345532	4182.832333	931.413086	70.035301
-7400.345532	4182.832333	930.235352	20.529509
-7400.345532	4182.832333	929.057617	119.435852
-7400.345532	4182.832333	927.879883	-31.527819
-7400.345532	4182.832333	926.702148	41.322159
-7400.345532	4182.832333	925.523438	23.060030
-7400.345532	4182.832333	924.344727	153.164398
-7400.345532	4182.832333	923.166016	43.839447
-7400.345532	4182.832333	921.987305	275.318604
-7400.345532	4182.832333	920.807617	202.428040
-7400.345532	4182.832333	919.627930	204.732315
-7400.345532	4182.832333	919.497070	10.207343
-7400.345532	4182.832333	918.331055	-104.229507
-7400.345532	4182.832333	917.165039	51.689701
-7400.345532	4182.832333	915.999023	80.212082
-7400.345532	4182.832333	914.833008	-23.780512
-7400.345532	4182.832333	913.666016	-117.340851
-7400.345532	4182.832333	912.499023	-91.400505
-7400.345532	4182.832333	911.332031	-62.874508
-7400.345532	4182.832333	910.165039	-47.341953
-7400.345532	4182.832333	908.997070	-249.833176
-7400.345532	4182.832333	907.830078	-109.715233
-7400.345532	4182.832333	906.661133	19.970652
-7400.345532	4182.832333	905.493164	-135.724564
-7400.345532	4182.832333	904.325195	-60.550961
-7400.345532	4182.832333	903.156250	32.743332
-7400.345532	4182.832333	901.987305	-8.801615
-7400.345532	4182.832333	900.818359	22.238976
-7400.345532	4182.832333	899.648438	-86.658432
-7400.345532	4182.832333	898.478516	-11.573905
-7400.345532	4182.832333	897.308594	-24.587555
-7400.345532	4182.832333	896.138672	-123.055878
-7400.345532	4182.832333	894.968750	112.511299
-7400.345532	4182.832333	893.797852	68.414627
-7400.345532	4182.832333	892.626953	-19.663260
-7400.345532	4182.832333	891.456055	215.735565
-7400.345532	4182.832333	890.284180	65.573845
-7400.345532	4182.832333	889.113281	153.425873
-7400.345532	4182.832333	887.941406	65.396889
-7400.345532	4182.832333	886.768555	114.431122
-7400.345532	4182.832333	885.596680	225.478836
-7400.345532	4182.832333	884.423828	142.654037
-7400.345532	4182.832333	883.250977	88.281906
-7400.345532	4182.832333	882.078125	67.512703
-7400.345532	4182.832333	880.905273	-79.806007
-7400.345532	4182.832333	879.731445	-30.815073
-7400.345532	4182.832333	878.557617	41.387825
-7400.345532	4182.832333	877.383789	-294.268738
-7400.345532	4182.832333	876.209961	36.018837
-7400.345532	4182.832333	875.035156	35.913380
-7400.345532	4182.832333	873.860352	-147.347839
-7400.345532	4182.832333	872.685547	-28.785486
-7400.345532	4182.832333	871.510742	-139.765900
-7400.345532	4182.832333	870.334961	-101.178047
-7400.345532	4182.832333	869.159180	50.799324
-7400.345532	4182.832333	867.983398	-106.525352
-7400.345532	4182.832333	866.807617	156.170013
-7400.345532	4182.832333	865.630859	-13.997704
-7400.345532	4182.832333	864.454102	112.067162
-7400.345532	4182.832333	863.277344	3.764801
-7400.345532	4182.832333	862.100586	104.021797
-7400.345532	4182.832333	860.922852	-24.834080
-7400.345532	4182.832333	859.745117	90.819191
-7400.345532	4182.832333	858.567383	250.155243
-7400.345532	4182.832333	857.389648	-33.001930
-7400.345532	4182.832333	856.210938	311.445953
-7400.345532	4182.832333	855.032227	25.811289
-7400.345532	4182.832333	853.853516	12.773585
-7400.345532	4182.832333	852.674805	17.726160
-7400.345532	4182.832333	851.495117	158.859024
-7400.345532	4182.832333	850.315430	86.694572
-7400.345532	4182.832333	849.135742	58.217930
-7400.345532	4182.832333	847.956055	291.680817
-7400.345532	4182.832333	846.775391	-19.262970
-7400.345532	4182.832333	845.595703	152.497131
-7400.345532	4182.832333	844.415039	-127.509315
-7400.345532	4182.832333	843.233398	-35.353882
-7400.345532	4182.832333	842.052734	-17.643780
-7400.345532	4182.832333	840.871094	10.311638
-7400.345532	4182.832333	839.689453	-136.126328
-7400.345532	4182.832333	838.506836	-18.444563
-7400.345532	4182.832333	837.325195	176.074966
-7400.345532	4182.832333	836.142578	24.538841
-7400.345532	4182.832333	834.959961	144.646271
-7400.345532	4182.832333	833.777344	-27.337429
-7400.345532	4182.832333	832.593750	128.566635
-7400.345532	4182.832333	831.410156	-4.955023
-7400.345532	4182.832333	830.226563	104.775024
-7400.345532	4182.832333	829.042969	40.397099
-7400.345532	4182.832333	827.858398	47.687874
-7400.345532	4182.832333	826.673828	254.525299
-7400.345532	4182.832333	825.489258	13.618025
-7400.345532	4182.832333	824.304688	-173.496170
-7400.345532	4182.832333	823.120117	153.393326
-7400.345532	4182.832333	821.934570	124.796501
-7400.345532	4182.832333	820.749023	-90.381310
-7400.345532	4182.832333	819.562500	-70.392838
-7400.345532	4182.832333	818.376953	-137.292236
-7400.345532	4182.832333	817.190430	-7.499705
-7400.345532	4182.832333	816.003906	99.239746
-7400.345532	4182.832333	814.817383	-8.552749
-7400.345532	4182.832333	813.629883	52.162964
-7400.345532	4182.832333	812.442383	-109.203819
-7400.345532	4182.832333	811.254883	135.191284
-7400.345532	4182.832333	810.067383	-133.308365
-7400.345532	4182.832333	808.878906	44.640091
-7400.345532	4182.832333	807.690430	-40.160477
-7400.345532	4182.832333	806.501953	-63.756325
-7400.345532	4182.832333	805.313477	-148.537476
-7400.345532	4182.832333	804.124023	36.835888
-7400.345532	4182.832333	802.934570	-60.710236
-7400.345532	4182.832333	801.745117	-267.775848
-7400.345532	4182.832333	800.555664	210.338898
-7400.345532	4182.832333	799.365234	82.199303
-7400.345532	4182.832333	798.175781	-313.224884
-7400.345532	4182.832333	796.985352	-87.448181
-7400.345532	4182.832333	795.793945	41.511417
-7400.345532	4182.832333	794.603516	-48.413368
-7400.345532	4182.832333	793.412109	-311.296722
-7400.345532	4182.832333	792.220703	-75.626556
-7400.345532	4182.832333	791.028320	-86.717583
-7400.345532	4182.832333	789.836914	-54.613491
-7400.345532	4182.832333	788.644531	94.368225
-7400.345532	4182.832333	787.452148	-132.819870
-7400.345532	4182.832333	786.258789	-230.369507
-7400.345532	4182.832333	785.066406	-7.861333
-7400.345532	4182.832333	783.873047	-295.913788
-7400.345532	4182.832333	782.679688	78.802704
-7400.345532	4182.832333	781.485352	14.183244
-7400.345532	4182.832333	780.291992	-17.446383
-7400.345532	4182.832333	779.097656	-127.749741
-7400.345532	4182.832333	777.903320	-207.594391
-7400.345532	4182.832333	776.708008	1.710524
-7400.345532	4182.832333	775.512695	-52.827507
-7400.345532	4182.832333	774.318359	-13.567128
-7400.345532	4182.832333	773.122070	20.576693
-7400.345532	4182.832333	771.926758	67.347198
-7400.345532	4182.832333	770.730469	20.318785
-7400.345532	4182.832333	769.534180	186.066422
-7400.345532	4182.832333	768.337891	-25.655430
-7400.345532	4182.832333	767.141602	-57.539543
-7400.345532	4182.832333	765.944336	67.516838
-7400.345532	4182.832333	764.747070	-35.310616
-7400.345532	4182.832333	763.549805	-130.537933
-7400.345532	4182.832333	762.351563	87.964897
-7400.345532	4182.832333	761.154297	136.864334
-7400.345532	4182.832333	759.956055	41.555565
-7400.345532	4182.832333	758.757813	237.023972
-7400.345532	4182.832333	757.558594	-68.156197
-7400.345532	4182.832333	756.359375	106.961441
-7400.345532	4182.832333	755.160156	309.764191
-7400.345532	4182.832333	753.960938	-28.194670
-7400.345532	4182.832333	752.761719	68.391151
-7400.345532	4182.832333	751.561523	134.595749
-7400.345532	4182.832333	750.361328	-16.397043
-7400.345532	4182.832333	749.160156	324.861847
-7400.345532	4182.832333	747.959961	70.340271
-7400.345532	4182.832333	746.758789	141.377167
-7400.345532	4182.832333	745.557617	-39.922623
-7400.345532	4182.832333	744.356445	101.645622
-7400.345532	4182.832333	743.154297	-49.394009
-7400.345532	4182.832333	741.952148	-39.061539
-7400.345532	4182.832333	740.750000	248.485443
-7400.345532	4182.832333	739.547852	200.704575
-7400.345532	4182.832333	738.344727	-91.491501
-7400.345532	4182.832333	737.142578	-0.723116
-7400.345532	4182.832333	735.939453	135.296280
-7400.345532	4182.832333	734.735352	24.455891
-7400.345532	4182.832333	733.532227	293.746918
-7400.345532	4182.832333	732.328125	-255.106796
-7400.345532	4182.832333	731.124023	-207.400299
-7400.345532	4182.832333	729.918945	-114.474113
-7400.345532	4182.832333	728.714844	146.892776
-7400.345532	4182.832333	727.509766	-109.941284
-7400.345532	4182.832333	726.303711	12.937347
-7400.345532	4182.832333	725.098633	65.333878
-7400.345532	4182.832333	723.892578	135.251984
-7400.345532	4182.832333	722.686523	94.536507
-7400.345532	4182.832333	721.480469	171.860016
-7400.345532	4182.832333	720.274414	158.685104
-7400.345532	4182.832333	719.067383	19.911215
-7400.345532	4182.832333	717.860352	64.417564
-7400.345532	4182.832333	716.653320	-194.858627
-7400.345532	4182.832333	715.445313	35.278866
-7400.345532	4182.832333	714.238281	182.473877
-7400.345532	4182.832333	713.030273	15.997995
-7400.345532	4182.832333	711.821289	-37.602283
-7400.345532	4182.832333	710.613281	249.778091
-7400.345532	4182.832333	709.404297	35.607723
-7400.345532	4182.832333	708.195313	225.000580
-7400.345532	4182.832333	706.986328	-9.224209
-7400.345532	4182.832333	705.776367	197.531631
-7400.345532	4182.832333	704.566406	111.087273
-7400.345532	4182.832333	703.356445	44.662254
-7400.345532	4182.832333	702.146484	201.043488
-7400.345532	4182.832333	700.935547	99.475624
-7400.345532	4182.832333	699.724609	130.538773
-7400.345532	4182.832333	698.513672	336.686859
-7400.345532	4182.832333	697.302734	2.341604
-7400.345532	4182.832333	696.090820	5.731893
-7400.345532	4182.832333	694.878906	-25.941847
-7400.345532	4182.832333	693.666992	-72.656311
-7400.345532	4182.832333	692.455078	38.063961
-7400.345532	4182.832333	691.242188	28.730917
-7400.345532	4182.832333	690.029297	181.747345
-7400.345532	4182.832333	688.816406	-144.962051
-7400.345532	4182.832333	687.602539	-4.570975
-7400.345532	4182.832333	686.389648	230.589951
-7400.345532	4182.832333	685.175781	171.022003
-7400.345532	4182.832333	683.960938	-48.312088
-7400.345532	4182.832333	682.747070	-40.532726
-7400.345532	4182.832333	681.532227	251.593582
-7400.345532	4182.832333	680.317383	-25.153980
-7400.345532	4182.832333	679.102539	231.823196
-7400.345532	4182.832333	677.886719	448.741760
-7400.345532	4182.832333	676.670898	84.715073
-7400.345532	4182.832333	675.455078	-12.551820
-7400.345532	4182.832333	674.239258	-35.084267
-7400.345532	4182.832333	673.022461	159.063751
-7400.345532	4182.832333	671.805664	131.410080
-7400.345532	4182.832333	670.588867	235.687164
-7400.345532	4182.832333	669.372070	-55.975010
-7400.345532	4182.832333	668.154297	209.970993
-7400.345532	4182.832333	666.936523	137.311783
-7400.345532	4182.832333	665.718750	37.260349
-7400.345532	4182.832333	664.500977	183.453522
-7400.345532	4182.832333	663.282227	322.066559
-7400.345532	4182.832333	662.063477	-121.253357
-7400.345532	4182.832333	660.844727	81.887466
-7400.345532	4182.832333	659.625000	329.621246
-7400.345532	4182.832333	658.405273	194.531815
-7400.345532	4182.832333	657.185547	215.955307
-7400.345532	4182.832333	655.965820	85.805008
-7400.345532	4182.832333	654.745117	246.193466
-7400.345532	4182.832333	653.525391	299.704742
-7400.345532	4182.832333	652.303711	97.466042
-7400.345532	4182.832333	651.083008	202.990295
-7400.345532	4182.832333	649.861328	164.506134
-7400.345532	4182.832333	648.640625	39.165417
-7400.345532	4182.832333	647.417969	156.869293
-7400.345532	4182.832333	646.196289	269.514038
-7400.345532	4182.832333	644.973633	233.311462
-7400.345532	4182.832333	643.750977	97.930016
-7400.345532	4182.832333	642.528320	-20.099682
-7400.345532	4182.832333	641.305664	196.329163
-7400.345532	4182.832333	640.082031	-58.011097
-7400.345532	4182.832333	638.858398	130.986740
-7400.345532	4182.832333	637.634766	67.310341
-7400.345532	4182.832333	636.410156	218.966400
-7400.345532	4182.832333	635.185547	118.071014
-7400.345532	4182.832333	633.960938	163.155869
-7400.345532	4182.832333	632.736328	82.006546
-7400.345532	4182.832333	631.510742	188.809311
-7400.345532	4182.832333	630.285156	124.897293
-7400.345532	4182.832333	629.059570	-72.537643
-7400.345532	4182.832333	627.833984	125.539169
-7400.345532	4182.832333	626.607422	256.758240
-7400.345532	4182.832333	625.380859	81.511482
-7400.345532	4182.832333	624.154297	400.322845
-7400.345532	4182.832333	622.927734	249.724136
-7400.345532	4182.832333	621.700195	597.898499
-7400.345532	4182.832333	620.472656	341.078827
-7400.345532	4182.832333	619.245117	336.065552
-7400.345532	4182.832333	618.016602	242.175522
-7400.345532	4182.832333	616.788086	343.175018
-7400.345532	4182.832333	615.559570	256.636902
-7400.345532	4182.832333	614.331055	172.559845
-7400.345532	4182.832333	613.101563	-106.296959
-7400.345532	4182.832333	611.872070	100.511650
-7400.345532	4182.832333	610.642578	302.262695
-7400.345532	4182.832333	609.413086	124.454887
-7400.345532	4182.832333	608.182617	3.335635
-7400.345532	4182.832333	606.952148	-95.605797
-7400.345532	4182.832333	605.721680	12.290473
-7400.345532	4182.832333	604.491211	206.266373
-7400.345532	4182.832333	603.259766	119.537025
-7400.345532	4182.832333	602.028320	5.741258
-7400.345532	4182.832333	600.796875	2.667908
-7400.345532	4182.832333	599.564453	58.589668
-7400.345532	4182.832333	598.332031	291.512665
-7400.345532	4182.832333	597.099609	219.434769
-7400.345532	4182.832333	595.867188	98.193665
-7400.345532	4182.832333	594.633789	23.662590
-7400.345532	4182.832333	593.400391	106.384918
-7400.345532	4182.832333	592.166992	56.389790
-7400.345532	4182.832333	590.933594	107.084282
-7400.345532	4182.832333	589.699219	-60.814663
-7400.345532	4182.832333	588.464844	-182.024292
-7400.345532	4182.832333	587.230469	-151.032043
-7400.345532	4182.832333	585.995117	63.960064
-7400.345532	4182.832333	584.760742	65.395782
-7400.345532	4182.832333	583.525391	15.292048
-7400.345532	4182.832333	582.289063	-59.341507
-7400.345532	4182.832333	581.053711	-102.086395
-7400.345532	4182.832333	579.817383	4.691430
-7400.345532	4182.832333	578.581055	52.584499
-7400.345532	4182.832333	577.343750	-46.581928
-7400.345532	4182.832333	576.107422	-111.423424
-7400.345532	4182.832333	574.870117	115.196930
-7400.345532	4182.832333	573.631836	99.279037
-7400.345532	4182.832333	572.394531	71.116615
-7400.345532	4182.832333	571.156250	20.917789
-7400.345532	4182.832333	569.917969	80.846504
-7400.345532	4182.832333	568.679688	47.766972
-7400.345532	4182.832333	567.440430	242.170425
-7400.345532	4182.832333	566.202148	157.691483
-7400.345532	4182.832333	564.961914	105.013863
-7400.345532	4182.832333	563.722656	25.464527
-7400.345532	4182.832333	562.482422	9.481036
-7400.345532	4182.832333	561.243164	174.319138
-7400.345532	4182.832333	560.001953	207.150787
-7400.345532	4182.832333	558.761719	174.022720
-7400.345532	4182.832333	557.520508	11.478917
-7400.345532	4182.832333	556.279297	73.609154
-7400.345532	4182.832333	555.038086	89.333305
-7400.345532	4182.832333	553.795898	-29.173813
-7400.345532	4182.832333	552.554688	81.716576
-7400.345532	4182.832333	551.311523	-90.407570
-7400.345532	4182.832333	550.069336	61.903778
-7400.345532	4182.832333	548.826172	-49.182365
-7400.345532	4182.832333	547.583984	46.993004
-7400.345532	4182.832333	546.339844	-124.970398
-7400.345532	4182.832333	545.096680	73.525803
-7400.345532	4182.832333	543.852539	-49.636532
-7400.345532	4182.832333	542.608398	-41.213417
-7400.345532	4182.832333	541.364258	149.846786
-7400.345532	4182.832333	540.119141	-136.352432
-7400.345532	4182.832333	538.875000	120.384880
-7400.345532	4182.832333	537.628906	67.950516
-7400.345532	4182.832333	536.383789	-23.373812
-7400.345532	4182.832333	535.137695	-58.704235
-7400.345532	4182.832333	533.892578	360.779083
-7400.345532	4182.832333	532.645508	9.312714
-7400.345532	4182.832333	531.399414	17.794399
-7400.345532	4182.832333	530.152344	-27.185909
-7400.345532	4182.832333	528.905273	-176.617920
-7400.345532	4182.832333	527.658203	123.466820
-7400.345532	4182.832333	526.410156	-30.762802
-7400.345532	4182.832333	525.163086	-216.471680
-7400.345532	4182.832333	523.914063	-220.006058
-7400.345532	4182.832333	522.666016	-133.705002
-7400.345532	4182.832333	521.416992	-83.828125
-7400.345532	4182.832333	520.167969	-293.561676
-7400.345532	4182.832333	518.918945	-81.107346
-7400.345532	4182.832333	517.669922	-2.109149
-7400.345532	4182.832333	516.419922	-39.514500
-7400.345532	4182.832333	515.169922	-59.912212
-7400.345532	4182.832333	513.919922	-80.278481
-7400.345532	4182.832333	512.668945	56.885555
-7400.345532	4182.832333	511.417969	-14.331362
-7400.345532	4182.832333	510.166992	-116.981697
-7400.345532	4182.832333	508.916016	-76.691200
-7400.345532	4182.832333	507.664063	-205.872223
-7400.345532	4182.832333	506.412109	-68.716537
-7400.345532	4182.832333	505.160156	-151.815842
-7400.345532	4182.832333	503.907227	-26.783709
-7400.345532	4182.832333	502.655273	-148.511978
-7400.345532	4182.832333	501.402344	-112.968178
-7400.345532	4182.832333	500.148438	-125.779312
-7400.345532	4182.832333	498.895508	-97.460495
-7400.345532	4182.832333	497.641602	-88.470535
-7400.345532	4182.832333	496.387695	-238.940231
-7400.345532	4182.832333	495.132813	-101.839828
-7400.345532	4182.832333	493.878906	-3.417290
-7400.345532	4182.832333	492.624023	-206.869751
-7400.345532	4182.832333	491.368164	-33.588253
-7400.345532	4182.832333	490.113281	-17.249775
-7400.345532	4182.832333	488.857422	35.296131
-7400.345532	4182.832333	487.601563	73.364372
-7400.345532	4182.832333	486.344727	-158.736328
-7400.345532	4182.832333	485.088867	-2.432382
-7400.345532	4182.832333	483.832031	-198.213135
-7400.345532	4182.832333	482.575195	-58.811890
-7400.345532	4182.832333	481.317383	-68.886963
-7400.345532	4182.832333	480.059570	-18.703100
-7400.345532	4182.832333	478.801758	62.790237
-7400.345532	4182.832333	477.543945	144.260681
-7400.345532	4182.832333	476.285156	-101.791161
-7400.345532	4182.832333	475.027344	-25.114853
-7400.345532	4182.832333	473.767578	388.509796
-7400.345532	4182.832333	472.508789	63.172840
-7400.345532	4182.832333	471.249023	-11.802210
-7400.345532	4182.832333	469.989258	79.234123
-7400.345532	4182.832333	468.729492	-63.046299
-7400.345532	4182.832333	467.469727	-106.686546
-7400.345532	4182.832333	466.208984	39.591541
-7400.345532	4182.832333	464.948242	12.758281
-7400.345532	4182.832333	463.686523	108.470512
-7400.345532	4182.832333	462.425781	35.969776
-7400.345532	4182.832333	461.164063	-29.310915
-7400.345532	4182.832333	459.901367	54.296562
-7400.345532	4182.832333	458.639648	58.627197
-7400.345532	4182.832333	457.376953	38.927036
-7400.345532	4182.832333	456.114258	24.010332
-7400.345532	4182.832333	454.851563	213.004684
-7400.345532	4182.832333	453.587891	164.409592
-7400.345532	4182.832333	452.324219	247.701019
-7400.345532	4182.832333	451.060547	88.752281
-7400.345532	4182.832333	449.796875	176.735352
-7400.345532	4182.832333	448.532227	128.022049
-7400.345532	4182.832333	447.267578	-18.962881
-7400.345532	4182.832333	446.002930	202.982361
-7400.345532	4182.832333	444.737305	46.345207
-7400.345532	4182.832333	443.471680	71.698486
-7400.345532	4182.832333	442.206055	99.364594
-7400.345532	4182.832333	440.940430	126.945084
-7400.345532	4182.832333	439.673828	195.110092
-7400.345532	4182.832333	438.407227	98.079437
-7400.345532	4182.832333	437.140625	142.126953
-7400.345532	4182.832333	435.873047	145.400589
-7400.345532	4182.832333	434.605469	-69.005257
-7400.345532	4182.832333	433.337891	72.747192
-7400.345532	4182.832333	432.070313	238.222061
-7400.345532	4182.832333	430.801758	288.810303
-7400.345532	4182.832333	429.533203	186.360748
-7400.345532	4182.832333	428.264648	329.821686
-7400.345532	4182.832333	426.996094	105.353096
-7400.345532	4182.832333	425.726563	260.411102
-7400.345532	4182.832333	424.457031	42.904617
-7400.345532	4182.832333	423.186523	190.423813
-7400.345532	4182.832333	421.916992	87.207375
-7400.345532	4182.832333	420.646484	389.342163
-7400.345532	4182.832333	419.375977	326.292267
-7400.345532	4182.832333	418.104492	234.455978
-7400.345532	4182.832333	416.833008	426.112579
-7400.345532	4182.832333	415.561523	481.628998
-7400.345532	4182.832333	414.290039	377.257538
-7400.345532	4182.832333	413.017578	191.696564
-7400.345532	4182.832333	411.746094	198.889313
-7400.345532	4182.832333	410.472656	108.184189
-7400.345532	4182.832333	409.200195	148.190750
-7400.345532	4182.832333	407.926758	414.003571
-7400.345532	4182.832333	406.653320	239.193192
-7400.345532	4182.832333	405.379883	318.716125
-7400.345532	4182.832333	404.105469	250.416611
-7400.345532	4182.832333	402.831055	215.113968
-7400.345532	4182.832333	401.556641	198.510849
-7400.345532	4182.832333	400.282227	183.942429
-7400.345532	4182.832333	399.006836	318.726257
-7400.345532	4182.832333	397.731445	301.014343
-7400.345532	4182.832333	396.456055	202.156525
-7400.345532	4182.832333	395.179688	74.428429
-7400.345532	4182.832333	393.903320	133.915482
-7400.345532	4182.832333	392.626953	318.758453
-7400.345532	4182.832333	391.350586	26.026463
-7400.345532	4182.832333	390.073242	117.348862
-7400.345532	4182.832333	388.795898	229.501328
-7400.345532	4182.832333	387.518555	84.953247
-7400.345532	4182.832333	386.240234	226.869781
-7400.345532	4182.832333	384.961914	254.395676
-7400.345532	4182.832333	383.683594	191.292114
-7400.345532	4182.832333	382.405273	269.834564
-7400.345532	4182.832333	381.125977	134.513947
-7400.345532	4182.832333	379.846680	93.397896
-7400.345532	4182.832333	378.567383	295.602386
-7400.345532	4182.832333	377.287109	77.978958
-7400.345532	4182.832333	376.006836	49.162632
-7400.345532	4182.832333	374.726563	5.475116
-7400.345532	4182.832333	373.446289	190.619522
-7400.345532	4182.832333	372.165039	10.631975
-7400.345532	4182.832333	370.883789	26.279499
-7400.345532	4182.832333	369.602539	100.265747
-7400.345532	4182.832333	368.320313	3.192022
-7400.345532	4182.832333	367.039063	70.813805
-7400.345532	4182.832333	365.755859	-148.405914
-7400.345532	4182.832333	364.473633	146.658325
-7400.345532	4182.832333	363.190430	143.067093
-7400.345532	4182.832333	361.907227	237.743317
-7400.345532	4182.832333	360.624023	-98.267181
-7400.345532	4182.832333	359.340820	53.520340
-7400.345532	4182.832333	358.056641	-166.294647
-7400.345532	4182.832333	356.772461	139.119553
-7400.345532	4182.832333	355.487305	-122.826836
-7400.345532	4182.832333	354.202148	-114.522484
-7400.345532	4182.832333	352.916992	50.644382
-7400.345532	4182.832333	351.631836	125.016380
-7400.345532	4182.832333	350.346680	63.838875
-7400.345532	4182.832333	349.060547	109.845871
-7400.345532	4182.832333	347.774414	173.440842
-7400.345532	4182.832333	346.487305	-110.531158
-7400.345532	4182.832333	345.200195	-101.331184
-7400.345532	4182.832333	343.913086	151.374725
-7400.345532	4182.832333	342.625977	40.110310
-7400.345532	4182.832333	341.338867	-65.455803
-7400.345532	4182.832333	340.050781	-104.227264
-7400.345532	4182.832333	338.762695	-172.693008
-7400.345532	4182.832333	337.473633	23.056986
-7400.345532	4182.832333	336.184570	-88.499687
-7400.345532	4182.832333	334.895508	-194.555405
-7400.345532	4182.832333	333.606445	-370.360870
-7400.345532	4182.832333	332.317383	-70.779831
-7400.345532	4182.832333	331.027344	175.220764
-7400.345532	4182.832333	329.736328	149.202377
-7400.345532	4182.832333	328.446289	-132.165619
-7400.345532	4182.832333	327.155273	131.689301
-7400.345532	4182.832333	325.864258	-118.145157
-7400.345532	4182.832333	324.573242	-285.335327
-7400.345532	4182.832333	323.281250	26.456900
-7400.345532	4182.832333	321.989258	-250.326553
-7400.345532	4182.832333	320.697266	-257.044952
-7400.345532	4182.832333	319.405273	41.243286
-7400.345532	4182.832333	318.112305	-124.624702
-7400.345532	4182.832333	316.819336	-238.757111
-7400.345532	4182.832333	315.526367	108.792786
-7400.345532	4182.832333	314.232422	-61.572533
-7400.345532	4182.832333	312.938477	-0.061649
-7400.345532	4182.832333	311.644531	-22.982573
-7400.345532	4182.832333	310.349609	255.855652
-7400.345532	4182.832333	309.054688	33.482201
-7400.345532	4182.832333	307.759766	119.797066
-7400.345532	4182.832333	306.464844	233.804733
-7400.345532	4182.832333	305.168945	417.446960
-7400.345532	4182.832333	303.873047	357.343445
-7400.345532	4182.832333	302.577148	271.019012
-7400.345532	4182.832333	301.281250	495.016022
-7400.345532	4182.832333	299.984375	776.590515
