#X		#Y		#Wave		#Intensity
-7443.588723	4080.232667	1999.946289	149.478165
-7443.588723	4080.232667	1998.981445	137.894424
-7443.588723	4080.232667	1998.017578	149.504150
-7443.588723	4080.232667	1997.052734	45.015892
-7443.588723	4080.232667	1996.088867	168.888458
-7443.588723	4080.232667	1995.124023	87.463264
-7443.588723	4080.232667	1994.159180	70.811653
-7443.588723	4080.232667	1993.193359	178.314529
-7443.588723	4080.232667	1992.228516	-72.883751
-7443.588723	4080.232667	1991.262695	-36.534740
-7443.588723	4080.232667	1990.296875	237.697037
-7443.588723	4080.232667	1989.331055	-2.559155
-7443.588723	4080.232667	1988.365234	84.125938
-7443.588723	4080.232667	1987.398438	0.379543
-7443.588723	4080.232667	1986.432617	-33.605591
-7443.588723	4080.232667	1985.465820	-146.445282
-7443.588723	4080.232667	1984.499023	163.741318
-7443.588723	4080.232667	1983.532227	281.261475
-7443.588723	4080.232667	1982.565430	40.641403
-7443.588723	4080.232667	1981.597656	-29.186274
-7443.588723	4080.232667	1980.629883	-51.837044
-7443.588723	4080.232667	1979.662109	-27.347595
-7443.588723	4080.232667	1978.694336	73.882294
-7443.588723	4080.232667	1977.726563	-335.804779
-7443.588723	4080.232667	1976.758789	-98.416611
-7443.588723	4080.232667	1975.790039	18.124256
-7443.588723	4080.232667	1974.821289	-97.161087
-7443.588723	4080.232667	1973.852539	-22.276999
-7443.588723	4080.232667	1972.883789	126.732300
-7443.588723	4080.232667	1971.915039	44.011238
-7443.588723	4080.232667	1970.945313	-82.921654
-7443.588723	4080.232667	1969.975586	-42.036499
-7443.588723	4080.232667	1969.005859	-3.503820
-7443.588723	4080.232667	1968.036133	-19.080891
-7443.588723	4080.232667	1967.066406	51.698799
-7443.588723	4080.232667	1966.096680	-52.343582
-7443.588723	4080.232667	1965.125977	136.851181
-7443.588723	4080.232667	1964.155273	84.746727
-7443.588723	4080.232667	1963.184570	111.539650
-7443.588723	4080.232667	1962.213867	57.174740
-7443.588723	4080.232667	1961.242188	91.515846
-7443.588723	4080.232667	1960.271484	-29.106096
-7443.588723	4080.232667	1959.299805	57.050049
-7443.588723	4080.232667	1958.328125	-16.644592
-7443.588723	4080.232667	1957.356445	148.303299
-7443.588723	4080.232667	1956.384766	42.772930
-7443.588723	4080.232667	1955.412109	-18.412689
-7443.588723	4080.232667	1954.439453	-47.572605
-7443.588723	4080.232667	1953.467773	-211.842346
-7443.588723	4080.232667	1952.495117	4.831466
-7443.588723	4080.232667	1951.521484	-19.281616
-7443.588723	4080.232667	1950.548828	54.889725
-7443.588723	4080.232667	1949.575195	67.672859
-7443.588723	4080.232667	1948.601563	107.483536
-7443.588723	4080.232667	1947.627930	-12.257939
-7443.588723	4080.232667	1946.654297	0.595384
-7443.588723	4080.232667	1945.680664	18.366358
-7443.588723	4080.232667	1944.706055	-111.057938
-7443.588723	4080.232667	1943.732422	88.262436
-7443.588723	4080.232667	1942.757813	49.628487
-7443.588723	4080.232667	1941.783203	52.694862
-7443.588723	4080.232667	1940.807617	-20.234945
-7443.588723	4080.232667	1939.833008	-31.866150
-7443.588723	4080.232667	1938.857422	37.375114
-7443.588723	4080.232667	1937.881836	180.087204
-7443.588723	4080.232667	1936.906250	97.361420
-7443.588723	4080.232667	1935.930664	93.029373
-7443.588723	4080.232667	1934.955078	206.227448
-7443.588723	4080.232667	1933.978516	218.985275
-7443.588723	4080.232667	1933.001953	99.531586
-7443.588723	4080.232667	1932.025391	-105.559502
-7443.588723	4080.232667	1931.048828	41.768658
-7443.588723	4080.232667	1930.072266	15.312036
-7443.588723	4080.232667	1929.094727	62.222599
-7443.588723	4080.232667	1928.118164	-76.783554
-7443.588723	4080.232667	1927.140625	-66.610535
-7443.588723	4080.232667	1926.163086	14.422242
-7443.588723	4080.232667	1925.184570	90.504982
-7443.588723	4080.232667	1924.207031	-143.840988
-7443.588723	4080.232667	1923.228516	-1.859619
-7443.588723	4080.232667	1922.250000	98.502144
-7443.588723	4080.232667	1921.271484	47.355354
-7443.588723	4080.232667	1920.292969	228.174408
-7443.588723	4080.232667	1919.314453	203.797043
-7443.588723	4080.232667	1918.334961	10.954664
-7443.588723	4080.232667	1917.355469	84.165657
-7443.588723	4080.232667	1916.375977	-81.829720
-7443.588723	4080.232667	1915.396484	137.661972
-7443.588723	4080.232667	1914.416992	-57.645252
-7443.588723	4080.232667	1913.436523	15.340379
-7443.588723	4080.232667	1912.457031	-104.379562
-7443.588723	4080.232667	1911.476563	22.123478
-7443.588723	4080.232667	1910.496094	9.596130
-7443.588723	4080.232667	1909.515625	131.056366
-7443.588723	4080.232667	1908.534180	-5.848383
-7443.588723	4080.232667	1907.552734	-152.497162
-7443.588723	4080.232667	1906.572266	68.629669
-7443.588723	4080.232667	1905.590820	-29.380503
-7443.588723	4080.232667	1904.608398	-159.056503
-7443.588723	4080.232667	1903.626953	-3.933550
-7443.588723	4080.232667	1902.644531	26.956451
-7443.588723	4080.232667	1901.663086	69.946754
-7443.588723	4080.232667	1900.680664	-79.329666
-7443.588723	4080.232667	1899.698242	-34.010887
-7443.588723	4080.232667	1898.714844	57.444946
-7443.588723	4080.232667	1897.732422	119.633392
-7443.588723	4080.232667	1896.749023	159.863892
-7443.588723	4080.232667	1895.765625	25.022150
-7443.588723	4080.232667	1894.782227	167.211700
-7443.588723	4080.232667	1893.798828	-28.432686
-7443.588723	4080.232667	1892.814453	6.718626
-7443.588723	4080.232667	1891.831055	51.516907
-7443.588723	4080.232667	1890.846680	96.243797
-7443.588723	4080.232667	1889.862305	106.908546
-7443.588723	4080.232667	1888.877930	146.644150
-7443.588723	4080.232667	1887.892578	193.591797
-7443.588723	4080.232667	1886.908203	82.745056
-7443.588723	4080.232667	1885.922852	-6.279901
-7443.588723	4080.232667	1884.937500	-34.686302
-7443.588723	4080.232667	1883.952148	19.321062
-7443.588723	4080.232667	1882.965820	131.446732
-7443.588723	4080.232667	1881.980469	-69.249695
-7443.588723	4080.232667	1880.994141	-29.967859
-7443.588723	4080.232667	1880.007813	-58.606922
-7443.588723	4080.232667	1879.021484	142.885269
-7443.588723	4080.232667	1878.035156	46.293289
-7443.588723	4080.232667	1877.047852	24.767782
-7443.588723	4080.232667	1876.061523	-23.437559
-7443.588723	4080.232667	1875.074219	80.851128
-7443.588723	4080.232667	1874.086914	49.496803
-7443.588723	4080.232667	1873.098633	27.785713
-7443.588723	4080.232667	1872.111328	163.313797
-7443.588723	4080.232667	1871.123047	-1.244429
-7443.588723	4080.232667	1870.135742	131.723785
-7443.588723	4080.232667	1869.147461	126.748260
-7443.588723	4080.232667	1868.158203	-25.764345
-7443.588723	4080.232667	1867.169922	97.321503
-7443.588723	4080.232667	1866.180664	84.964081
-7443.588723	4080.232667	1865.192383	-57.925480
-7443.588723	4080.232667	1864.203125	81.872658
-7443.588723	4080.232667	1863.213867	223.989670
-7443.588723	4080.232667	1862.223633	-78.380363
-7443.588723	4080.232667	1861.234375	-32.961693
-7443.588723	4080.232667	1860.244141	-125.216431
-7443.588723	4080.232667	1859.253906	9.419436
-7443.588723	4080.232667	1858.263672	78.801994
-7443.588723	4080.232667	1857.273438	138.467041
-7443.588723	4080.232667	1856.282227	79.858444
-7443.588723	4080.232667	1855.291992	45.354034
-7443.588723	4080.232667	1854.300781	223.037155
-7443.588723	4080.232667	1853.309570	-247.967377
-7443.588723	4080.232667	1852.317383	211.670883
-7443.588723	4080.232667	1851.326172	-39.902336
-7443.588723	4080.232667	1850.333984	127.874542
-7443.588723	4080.232667	1849.342773	59.444267
-7443.588723	4080.232667	1848.350586	70.494255
-7443.588723	4080.232667	1847.357422	57.420574
-7443.588723	4080.232667	1846.365234	97.293129
-7443.588723	4080.232667	1845.372070	-69.925461
-7443.588723	4080.232667	1844.379883	22.844603
-7443.588723	4080.232667	1843.386719	33.724003
-7443.588723	4080.232667	1842.393555	131.186584
-7443.588723	4080.232667	1841.399414	67.402290
-7443.588723	4080.232667	1840.406250	-1.196306
-7443.588723	4080.232667	1839.412109	79.293480
-7443.588723	4080.232667	1838.417969	75.574104
-7443.588723	4080.232667	1837.423828	-113.267830
-7443.588723	4080.232667	1836.429688	-193.913315
-7443.588723	4080.232667	1835.434570	-36.667183
-7443.588723	4080.232667	1834.440430	170.948364
-7443.588723	4080.232667	1833.445313	-154.793228
-7443.588723	4080.232667	1832.450195	189.603607
-7443.588723	4080.232667	1831.454102	72.828087
-7443.588723	4080.232667	1830.458984	-77.535385
-7443.588723	4080.232667	1829.462891	105.764954
-7443.588723	4080.232667	1828.466797	111.389786
-7443.588723	4080.232667	1827.470703	33.014549
-7443.588723	4080.232667	1826.474609	398.437683
-7443.588723	4080.232667	1825.478516	137.716476
-7443.588723	4080.232667	1824.481445	40.132694
-7443.588723	4080.232667	1823.484375	19.286566
-7443.588723	4080.232667	1822.487305	-109.438507
-7443.588723	4080.232667	1821.490234	15.906299
-7443.588723	4080.232667	1820.493164	-62.486053
-7443.588723	4080.232667	1819.495117	-80.976448
-7443.588723	4080.232667	1818.498047	-56.359985
-7443.588723	4080.232667	1817.500000	298.710297
-7443.588723	4080.232667	1816.500977	186.731995
-7443.588723	4080.232667	1815.502930	-20.972742
-7443.588723	4080.232667	1814.504883	-51.498260
-7443.588723	4080.232667	1813.505859	83.086418
-7443.588723	4080.232667	1812.506836	162.578888
-7443.588723	4080.232667	1811.507813	84.150543
-7443.588723	4080.232667	1810.508789	15.305807
-7443.588723	4080.232667	1809.508789	-8.094726
-7443.588723	4080.232667	1808.508789	71.303185
-7443.588723	4080.232667	1807.508789	215.197296
-7443.588723	4080.232667	1806.508789	-126.108231
-7443.588723	4080.232667	1805.508789	-3.756455
-7443.588723	4080.232667	1804.508789	-36.741077
-7443.588723	4080.232667	1803.507813	-36.285580
-7443.588723	4080.232667	1802.506836	50.129318
-7443.588723	4080.232667	1801.505859	-95.091644
-7443.588723	4080.232667	1800.504883	93.930855
-7443.588723	4080.232667	1799.502930	-149.113647
-7443.588723	4080.232667	1798.501953	-72.319778
-7443.588723	4080.232667	1797.500000	4.437177
-7443.588723	4080.232667	1796.498047	-85.813728
-7443.588723	4080.232667	1795.496094	79.142731
-7443.588723	4080.232667	1794.493164	-68.328209
-7443.588723	4080.232667	1793.491211	-132.307480
-7443.588723	4080.232667	1792.488281	-15.123601
-7443.588723	4080.232667	1791.485352	-83.867645
-7443.588723	4080.232667	1790.482422	-76.345917
-7443.588723	4080.232667	1789.478516	-52.159054
-7443.588723	4080.232667	1788.475586	10.124671
-7443.588723	4080.232667	1787.471680	77.141541
-7443.588723	4080.232667	1786.467773	-60.618504
-7443.588723	4080.232667	1785.463867	-43.606354
-7443.588723	4080.232667	1784.459961	-17.083443
-7443.588723	4080.232667	1783.455078	30.838802
-7443.588723	4080.232667	1782.450195	40.677624
-7443.588723	4080.232667	1781.445313	-37.494457
-7443.588723	4080.232667	1780.440430	124.547424
-7443.588723	4080.232667	1779.435547	53.518341
-7443.588723	4080.232667	1778.429688	-3.223449
-7443.588723	4080.232667	1777.424805	156.340607
-7443.588723	4080.232667	1776.418945	-57.235340
-7443.588723	4080.232667	1775.413086	114.153778
-7443.588723	4080.232667	1774.406250	280.724579
-7443.588723	4080.232667	1773.400391	-20.626471
-7443.588723	4080.232667	1772.393555	110.289490
-7443.588723	4080.232667	1771.386719	93.967148
-7443.588723	4080.232667	1770.379883	18.311951
-7443.588723	4080.232667	1769.373047	-19.344902
-7443.588723	4080.232667	1768.365234	-0.043664
-7443.588723	4080.232667	1767.358398	61.952854
-7443.588723	4080.232667	1766.350586	71.746605
-7443.588723	4080.232667	1765.342773	-86.826973
-7443.588723	4080.232667	1764.334961	-159.987488
-7443.588723	4080.232667	1763.326172	-98.006683
-7443.588723	4080.232667	1762.318359	42.163128
-7443.588723	4080.232667	1761.309570	32.998875
-7443.588723	4080.232667	1760.300781	-120.672844
-7443.588723	4080.232667	1759.291016	-82.428459
-7443.588723	4080.232667	1758.282227	55.267929
-7443.588723	4080.232667	1757.272461	152.660812
-7443.588723	4080.232667	1756.262695	197.938095
-7443.588723	4080.232667	1755.252930	53.855679
-7443.588723	4080.232667	1754.243164	35.246593
-7443.588723	4080.232667	1753.233398	146.772980
-7443.588723	4080.232667	1752.222656	87.942375
-7443.588723	4080.232667	1751.211914	40.962132
-7443.588723	4080.232667	1750.201172	12.917216
-7443.588723	4080.232667	1749.190430	-19.841780
-7443.588723	4080.232667	1748.179688	153.051346
-7443.588723	4080.232667	1747.167969	188.813095
-7443.588723	4080.232667	1746.156250	208.022827
-7443.588723	4080.232667	1745.144531	118.562378
-7443.588723	4080.232667	1744.132813	163.762756
-7443.588723	4080.232667	1743.121094	-22.469824
-7443.588723	4080.232667	1742.108398	-102.388611
-7443.588723	4080.232667	1741.095703	-61.888882
-7443.588723	4080.232667	1740.083008	56.479504
-7443.588723	4080.232667	1739.070313	314.021179
-7443.588723	4080.232667	1738.057617	5.268272
-7443.588723	4080.232667	1737.043945	76.384544
-7443.588723	4080.232667	1736.030273	222.939514
-7443.588723	4080.232667	1735.016602	173.741684
-7443.588723	4080.232667	1734.002930	181.140579
-7443.588723	4080.232667	1732.989258	103.689804
-7443.588723	4080.232667	1731.974609	-51.495743
-7443.588723	4080.232667	1730.959961	45.471783
-7443.588723	4080.232667	1729.945313	90.580551
-7443.588723	4080.232667	1728.930664	-33.894169
-7443.588723	4080.232667	1727.916016	95.982086
-7443.588723	4080.232667	1726.900391	108.097618
-7443.588723	4080.232667	1725.885742	-18.661474
-7443.588723	4080.232667	1724.870117	-46.534081
-7443.588723	4080.232667	1723.853516	177.356628
-7443.588723	4080.232667	1722.837891	24.779528
-7443.588723	4080.232667	1721.822266	69.825058
-7443.588723	4080.232667	1720.805664	201.856125
-7443.588723	4080.232667	1719.789063	42.306419
-7443.588723	4080.232667	1718.772461	242.458969
-7443.588723	4080.232667	1717.754883	-107.404373
-7443.588723	4080.232667	1716.738281	184.337784
-7443.588723	4080.232667	1715.720703	158.815659
-7443.588723	4080.232667	1714.703125	201.417038
-7443.588723	4080.232667	1713.685547	100.751106
-7443.588723	4080.232667	1712.667969	354.656555
-7443.588723	4080.232667	1711.649414	59.155483
-7443.588723	4080.232667	1710.630859	71.224457
-7443.588723	4080.232667	1709.612305	210.000031
-7443.588723	4080.232667	1708.593750	-90.001381
-7443.588723	4080.232667	1707.575195	-40.387383
-7443.588723	4080.232667	1706.555664	128.808411
-7443.588723	4080.232667	1705.536133	302.626068
-7443.588723	4080.232667	1704.516602	134.104477
-7443.588723	4080.232667	1703.497070	214.094025
-7443.588723	4080.232667	1702.477539	193.282974
-7443.588723	4080.232667	1701.457031	336.481476
-7443.588723	4080.232667	1700.437500	179.781570
-7443.588723	4080.232667	1699.416992	44.214836
-7443.588723	4080.232667	1698.395508	49.190235
-7443.588723	4080.232667	1697.375000	173.559616
-7443.588723	4080.232667	1696.354492	248.722916
-7443.588723	4080.232667	1695.333008	206.836929
-7443.588723	4080.232667	1694.311523	312.370453
-7443.588723	4080.232667	1693.290039	-47.674801
-7443.588723	4080.232667	1692.267578	-12.312925
-7443.588723	4080.232667	1691.246094	76.815750
-7443.588723	4080.232667	1690.223633	177.593323
-7443.588723	4080.232667	1689.201172	250.274719
-7443.588723	4080.232667	1688.178711	259.819702
-7443.588723	4080.232667	1687.155273	463.295166
-7443.588723	4080.232667	1686.132813	297.566711
-7443.588723	4080.232667	1685.109375	328.097412
-7443.588723	4080.232667	1684.085938	325.913757
-7443.588723	4080.232667	1683.062500	256.013550
-7443.588723	4080.232667	1682.039063	293.515747
-7443.588723	4080.232667	1681.014648	454.694275
-7443.588723	4080.232667	1679.990234	289.109741
-7443.588723	4080.232667	1678.965820	296.227814
-7443.588723	4080.232667	1677.941406	443.292389
-7443.588723	4080.232667	1676.916992	317.427338
-7443.588723	4080.232667	1675.891602	368.810791
-7443.588723	4080.232667	1674.866211	329.246643
-7443.588723	4080.232667	1673.840820	366.604797
-7443.588723	4080.232667	1672.815430	401.609650
-7443.588723	4080.232667	1671.790039	424.941742
-7443.588723	4080.232667	1670.763672	359.732269
-7443.588723	4080.232667	1669.737305	380.712921
-7443.588723	4080.232667	1668.710938	471.531952
-7443.588723	4080.232667	1667.684570	285.259460
-7443.588723	4080.232667	1666.658203	387.679443
-7443.588723	4080.232667	1665.630859	392.304047
-7443.588723	4080.232667	1664.603516	431.817047
-7443.588723	4080.232667	1663.576172	396.861877
-7443.588723	4080.232667	1662.548828	638.688354
-7443.588723	4080.232667	1661.520508	608.332947
-7443.588723	4080.232667	1660.493164	580.305176
-7443.588723	4080.232667	1659.464844	538.326721
-7443.588723	4080.232667	1658.436523	642.769775
-7443.588723	4080.232667	1657.408203	386.997650
-7443.588723	4080.232667	1656.378906	568.067200
-7443.588723	4080.232667	1655.350586	672.408020
-7443.588723	4080.232667	1654.321289	549.108826
-7443.588723	4080.232667	1653.291992	623.201172
-7443.588723	4080.232667	1652.261719	748.320129
-7443.588723	4080.232667	1651.232422	699.310425
-7443.588723	4080.232667	1650.202148	692.072205
-7443.588723	4080.232667	1649.171875	953.948669
-7443.588723	4080.232667	1648.141602	798.183777
-7443.588723	4080.232667	1647.111328	950.911255
-7443.588723	4080.232667	1646.080078	727.935974
-7443.588723	4080.232667	1645.049805	1135.598022
-7443.588723	4080.232667	1644.018555	826.887207
-7443.588723	4080.232667	1642.987305	838.076477
-7443.588723	4080.232667	1641.955078	851.560608
-7443.588723	4080.232667	1640.923828	990.117188
-7443.588723	4080.232667	1639.891602	903.950867
-7443.588723	4080.232667	1638.859375	970.629578
-7443.588723	4080.232667	1637.827148	875.211853
-7443.588723	4080.232667	1636.794922	1027.483765
-7443.588723	4080.232667	1635.761719	908.918030
-7443.588723	4080.232667	1634.729492	961.603088
-7443.588723	4080.232667	1633.696289	898.586243
-7443.588723	4080.232667	1632.662109	1046.046021
-7443.588723	4080.232667	1631.628906	915.947754
-7443.588723	4080.232667	1630.594727	922.286987
-7443.588723	4080.232667	1629.561523	995.646301
-7443.588723	4080.232667	1628.527344	851.719360
-7443.588723	4080.232667	1627.493164	1308.592773
-7443.588723	4080.232667	1626.458008	908.199463
-7443.588723	4080.232667	1625.423828	1217.032104
-7443.588723	4080.232667	1624.388672	994.596008
-7443.588723	4080.232667	1623.353516	1021.583191
-7443.588723	4080.232667	1622.318359	900.810242
-7443.588723	4080.232667	1621.282227	1119.328857
-7443.588723	4080.232667	1620.247070	1196.994385
-7443.588723	4080.232667	1619.210938	933.173279
-7443.588723	4080.232667	1618.174805	1093.848755
-7443.588723	4080.232667	1617.137695	1021.525818
-7443.588723	4080.232667	1616.101563	1149.811768
-7443.588723	4080.232667	1615.064453	1185.820068
-7443.588723	4080.232667	1614.027344	1048.942261
-7443.588723	4080.232667	1612.990234	1269.272217
-7443.588723	4080.232667	1611.953125	1254.506104
-7443.588723	4080.232667	1610.916016	1103.828735
-7443.588723	4080.232667	1609.877930	1128.218506
-7443.588723	4080.232667	1608.839844	989.104309
-7443.588723	4080.232667	1607.801758	1045.705811
-7443.588723	4080.232667	1606.763672	968.776245
-7443.588723	4080.232667	1605.724609	1078.255737
-7443.588723	4080.232667	1604.685547	1017.422058
-7443.588723	4080.232667	1603.646484	926.694092
-7443.588723	4080.232667	1602.607422	1344.252686
-7443.588723	4080.232667	1601.568359	1292.556763
-7443.588723	4080.232667	1600.528320	1121.319458
-7443.588723	4080.232667	1599.489258	904.167847
-7443.588723	4080.232667	1598.449219	995.021790
-7443.588723	4080.232667	1597.408203	1124.883301
-7443.588723	4080.232667	1596.368164	1224.819336
-7443.588723	4080.232667	1595.327148	950.337463
-7443.588723	4080.232667	1594.287109	1093.870728
-7443.588723	4080.232667	1593.246094	913.623169
-7443.588723	4080.232667	1592.204102	1084.618164
-7443.588723	4080.232667	1591.163086	1124.727417
-7443.588723	4080.232667	1590.121094	1001.898071
-7443.588723	4080.232667	1589.079102	920.396973
-7443.588723	4080.232667	1588.037109	896.252625
-7443.588723	4080.232667	1586.995117	1028.038574
-7443.588723	4080.232667	1585.953125	902.981445
-7443.588723	4080.232667	1584.910156	1140.128052
-7443.588723	4080.232667	1583.867188	941.733826
-7443.588723	4080.232667	1582.824219	912.963928
-7443.588723	4080.232667	1581.781250	744.450439
-7443.588723	4080.232667	1580.737305	921.841614
-7443.588723	4080.232667	1579.693359	941.144958
-7443.588723	4080.232667	1578.649414	932.955383
-7443.588723	4080.232667	1577.605469	785.124634
-7443.588723	4080.232667	1576.561523	715.153992
-7443.588723	4080.232667	1575.516602	617.740540
-7443.588723	4080.232667	1574.472656	813.188049
-7443.588723	4080.232667	1573.427734	944.501831
-7443.588723	4080.232667	1572.381836	1162.651001
-7443.588723	4080.232667	1571.336914	948.581726
-7443.588723	4080.232667	1570.291016	896.886414
-7443.588723	4080.232667	1569.246094	733.216492
-7443.588723	4080.232667	1568.200195	752.403442
-7443.588723	4080.232667	1567.153320	664.194641
-7443.588723	4080.232667	1566.107422	733.622437
-7443.588723	4080.232667	1565.060547	725.367004
-7443.588723	4080.232667	1564.013672	831.269775
-7443.588723	4080.232667	1562.966797	800.155457
-7443.588723	4080.232667	1561.919922	828.389404
-7443.588723	4080.232667	1560.872070	826.936462
-7443.588723	4080.232667	1559.825195	636.122070
-7443.588723	4080.232667	1558.777344	673.473938
-7443.588723	4080.232667	1557.729492	690.280884
-7443.588723	4080.232667	1556.680664	593.067322
-7443.588723	4080.232667	1555.632813	525.526794
-7443.588723	4080.232667	1554.583984	633.504517
-7443.588723	4080.232667	1553.535156	616.104736
-7443.588723	4080.232667	1552.486328	635.159912
-7443.588723	4080.232667	1551.436523	722.538086
-7443.588723	4080.232667	1550.387695	705.121399
-7443.588723	4080.232667	1549.337891	644.443481
-7443.588723	4080.232667	1548.288086	688.507141
-7443.588723	4080.232667	1547.238281	570.950439
-7443.588723	4080.232667	1546.187500	451.159088
-7443.588723	4080.232667	1545.136719	738.672913
-7443.588723	4080.232667	1544.086914	600.700928
-7443.588723	4080.232667	1543.035156	537.826965
-7443.588723	4080.232667	1541.984375	493.173004
-7443.588723	4080.232667	1540.933594	503.099335
-7443.588723	4080.232667	1539.881836	294.816833
-7443.588723	4080.232667	1538.830078	561.568542
-7443.588723	4080.232667	1537.778320	564.660645
-7443.588723	4080.232667	1536.725586	631.354736
-7443.588723	4080.232667	1535.673828	457.287964
-7443.588723	4080.232667	1534.621094	585.292786
-7443.588723	4080.232667	1533.568359	624.710022
-7443.588723	4080.232667	1532.515625	659.577148
-7443.588723	4080.232667	1531.461914	317.719452
-7443.588723	4080.232667	1530.409180	334.491669
-7443.588723	4080.232667	1529.355469	473.756775
-7443.588723	4080.232667	1528.301758	306.790955
-7443.588723	4080.232667	1527.247070	371.186127
-7443.588723	4080.232667	1526.193359	471.839996
-7443.588723	4080.232667	1525.138672	232.458328
-7443.588723	4080.232667	1524.083984	441.890594
-7443.588723	4080.232667	1523.029297	519.833557
-7443.588723	4080.232667	1521.974609	348.568939
-7443.588723	4080.232667	1520.918945	374.422089
-7443.588723	4080.232667	1519.863281	266.674103
-7443.588723	4080.232667	1518.807617	23.140907
-7443.588723	4080.232667	1517.751953	347.860046
-7443.588723	4080.232667	1516.696289	206.267609
-7443.588723	4080.232667	1515.639648	141.669449
-7443.588723	4080.232667	1514.583008	113.303642
-7443.588723	4080.232667	1513.526367	82.700981
-7443.588723	4080.232667	1512.469727	-158.177124
-7443.588723	4080.232667	1511.412109	60.002647
-7443.588723	4080.232667	1510.355469	33.991203
-7443.588723	4080.232667	1509.297852	-10.078534
-7443.588723	4080.232667	1508.240234	-158.052536
-7443.588723	4080.232667	1507.181641	-129.747818
-7443.588723	4080.232667	1506.124023	67.959457
-7443.588723	4080.232667	1505.065430	3.656460
-7443.588723	4080.232667	1504.006836	54.540127
-7443.588723	4080.232667	1502.948242	-59.358753
-7443.588723	4080.232667	1501.888672	-87.438164
-7443.588723	4080.232667	1500.830078	42.460735
-7443.588723	4080.232667	1499.770508	-168.317871
-7443.588723	4080.232667	1498.710938	-58.716778
-7443.588723	4080.232667	1497.650391	-14.537195
-7443.588723	4080.232667	1496.590820	-31.223957
-7443.588723	4080.232667	1495.530273	-133.542084
-7443.588723	4080.232667	1494.469727	54.927849
-7443.588723	4080.232667	1493.409180	18.021334
-7443.588723	4080.232667	1492.348633	1.429316
-7443.588723	4080.232667	1491.287109	126.760887
-7443.588723	4080.232667	1490.225586	-24.914223
-7443.588723	4080.232667	1489.164063	-108.961693
-7443.588723	4080.232667	1488.102539	7.389496
-7443.588723	4080.232667	1487.041016	-47.322037
-7443.588723	4080.232667	1485.978516	-27.734152
-7443.588723	4080.232667	1484.916016	3.143667
-7443.588723	4080.232667	1483.853516	92.471123
-7443.588723	4080.232667	1482.791016	-29.566692
-7443.588723	4080.232667	1481.727539	95.783104
-7443.588723	4080.232667	1480.664063	41.301933
-7443.588723	4080.232667	1479.600586	27.322346
-7443.588723	4080.232667	1478.537109	58.281387
-7443.588723	4080.232667	1477.473633	174.634659
-7443.588723	4080.232667	1476.409180	158.559998
-7443.588723	4080.232667	1475.344727	247.890411
-7443.588723	4080.232667	1474.280273	222.811996
-7443.588723	4080.232667	1473.215820	-17.558537
-7443.588723	4080.232667	1472.151367	287.320343
-7443.588723	4080.232667	1471.085938	351.951843
-7443.588723	4080.232667	1470.020508	228.299637
-7443.588723	4080.232667	1468.955078	353.693390
-7443.588723	4080.232667	1467.888672	288.713531
-7443.588723	4080.232667	1466.823242	478.947815
-7443.588723	4080.232667	1465.756836	335.271454
-7443.588723	4080.232667	1464.690430	283.774994
-7443.588723	4080.232667	1463.624023	319.411072
-7443.588723	4080.232667	1462.556641	467.209473
-7443.588723	4080.232667	1461.490234	418.310394
-7443.588723	4080.232667	1460.422852	431.941925
-7443.588723	4080.232667	1459.355469	630.898499
-7443.588723	4080.232667	1458.287109	697.709045
-7443.588723	4080.232667	1457.219727	477.019348
-7443.588723	4080.232667	1456.151367	599.735535
-7443.588723	4080.232667	1455.083008	445.732849
-7443.588723	4080.232667	1454.014648	455.280365
-7443.588723	4080.232667	1452.945313	455.507874
-7443.588723	4080.232667	1451.876953	579.301819
-7443.588723	4080.232667	1450.807617	543.702576
-7443.588723	4080.232667	1449.738281	423.893829
-7443.588723	4080.232667	1448.668945	504.909180
-7443.588723	4080.232667	1447.598633	565.212646
-7443.588723	4080.232667	1446.528320	658.559082
-7443.588723	4080.232667	1445.458008	377.858093
-7443.588723	4080.232667	1444.387695	476.782959
-7443.588723	4080.232667	1443.317383	541.266785
-7443.588723	4080.232667	1442.246094	596.580383
-7443.588723	4080.232667	1441.174805	571.425598
-7443.588723	4080.232667	1440.103516	564.980591
-7443.588723	4080.232667	1439.032227	463.379608
-7443.588723	4080.232667	1437.960938	400.929718
-7443.588723	4080.232667	1436.888672	451.256439
-7443.588723	4080.232667	1435.816406	249.212723
-7443.588723	4080.232667	1434.744141	495.565643
-7443.588723	4080.232667	1433.670898	413.341156
-7443.588723	4080.232667	1432.598633	212.958313
-7443.588723	4080.232667	1431.525391	205.253891
-7443.588723	4080.232667	1430.452148	213.818924
-7443.588723	4080.232667	1429.378906	248.617645
-7443.588723	4080.232667	1428.304688	138.801346
-7443.588723	4080.232667	1427.231445	158.347046
-7443.588723	4080.232667	1426.157227	245.550079
-7443.588723	4080.232667	1425.083008	144.412292
-7443.588723	4080.232667	1424.007813	148.141769
-7443.588723	4080.232667	1422.933594	-5.662781
-7443.588723	4080.232667	1421.858398	-235.493759
-7443.588723	4080.232667	1420.783203	73.173920
-7443.588723	4080.232667	1419.708008	1.876750
-7443.588723	4080.232667	1418.631836	57.610153
-7443.588723	4080.232667	1417.555664	70.904892
-7443.588723	4080.232667	1416.479492	31.834555
-7443.588723	4080.232667	1415.403320	19.748102
-7443.588723	4080.232667	1414.327148	42.516956
-7443.588723	4080.232667	1413.250000	-45.593670
-7443.588723	4080.232667	1412.173828	39.636818
-7443.588723	4080.232667	1411.096680	150.065704
-7443.588723	4080.232667	1410.018555	44.407337
-7443.588723	4080.232667	1408.941406	9.338013
-7443.588723	4080.232667	1407.863281	105.490730
-7443.588723	4080.232667	1406.785156	60.954235
-7443.588723	4080.232667	1405.707031	-74.946968
-7443.588723	4080.232667	1404.628906	-63.790730
-7443.588723	4080.232667	1403.549805	78.189583
-7443.588723	4080.232667	1402.470703	-27.672403
-7443.588723	4080.232667	1401.391602	76.377464
-7443.588723	4080.232667	1400.312500	24.942953
-7443.588723	4080.232667	1399.233398	103.444229
-7443.588723	4080.232667	1398.153320	37.066162
-7443.588723	4080.232667	1397.073242	-58.370655
-7443.588723	4080.232667	1395.993164	-59.382595
-7443.588723	4080.232667	1394.913086	47.437778
-7443.588723	4080.232667	1393.832031	-59.256672
-7443.588723	4080.232667	1392.750977	89.850471
-7443.588723	4080.232667	1391.669922	197.132462
-7443.588723	4080.232667	1390.588867	40.940063
-7443.588723	4080.232667	1389.506836	243.940994
-7443.588723	4080.232667	1388.425781	-109.388039
-7443.588723	4080.232667	1387.343750	68.939613
-7443.588723	4080.232667	1386.261719	-83.334251
-7443.588723	4080.232667	1385.178711	118.253235
-7443.588723	4080.232667	1384.096680	82.809105
-7443.588723	4080.232667	1383.013672	-44.323074
-7443.588723	4080.232667	1381.930664	-201.640045
-7443.588723	4080.232667	1380.846680	-142.960983
-7443.588723	4080.232667	1379.763672	-129.939117
-7443.588723	4080.232667	1378.679688	32.409214
-7443.588723	4080.232667	1377.595703	185.129974
-7443.588723	4080.232667	1376.511719	246.142197
-7443.588723	4080.232667	1375.427734	-19.691738
-7443.588723	4080.232667	1374.342773	117.648224
-7443.588723	4080.232667	1373.257813	67.048561
-7443.588723	4080.232667	1372.172852	-4.121517
-7443.588723	4080.232667	1371.087891	-54.163712
-7443.588723	4080.232667	1370.001953	145.691254
-7443.588723	4080.232667	1368.916992	128.317139
-7443.588723	4080.232667	1367.831055	38.218307
-7443.588723	4080.232667	1366.744141	54.035610
-7443.588723	4080.232667	1365.658203	94.784973
-7443.588723	4080.232667	1364.571289	-47.545471
-7443.588723	4080.232667	1363.484375	39.061966
-7443.588723	4080.232667	1362.397461	-38.017723
-7443.588723	4080.232667	1361.310547	166.343384
-7443.588723	4080.232667	1360.222656	-241.677719
-7443.588723	4080.232667	1359.135742	31.228050
-7443.588723	4080.232667	1358.047852	-38.725868
-7443.588723	4080.232667	1356.958984	30.435272
-7443.588723	4080.232667	1355.871094	27.859022
-7443.588723	4080.232667	1354.782227	18.358782
-7443.588723	4080.232667	1353.693359	-107.811089
-7443.588723	4080.232667	1352.604492	-99.476830
-7443.588723	4080.232667	1351.515625	-114.999863
-7443.588723	4080.232667	1350.425781	125.713318
-7443.588723	4080.232667	1349.335938	127.728317
-7443.588723	4080.232667	1348.246094	50.780369
-7443.588723	4080.232667	1347.156250	-46.591568
-7443.588723	4080.232667	1346.066406	15.738345
-7443.588723	4080.232667	1344.975586	99.745720
-7443.588723	4080.232667	1343.884766	149.951874
-7443.588723	4080.232667	1342.793945	98.773636
-7443.588723	4080.232667	1341.702148	-82.959709
-7443.588723	4080.232667	1340.611328	-78.377846
-7443.588723	4080.232667	1339.519531	29.119392
-7443.588723	4080.232667	1338.427734	45.923092
-7443.588723	4080.232667	1337.334961	105.637154
-7443.588723	4080.232667	1336.243164	337.688995
-7443.588723	4080.232667	1335.150391	228.676300
-7443.588723	4080.232667	1334.057617	238.589493
-7443.588723	4080.232667	1332.964844	63.324821
-7443.588723	4080.232667	1331.871094	186.534317
-7443.588723	4080.232667	1330.778320	162.870316
-7443.588723	4080.232667	1329.684570	249.402786
-7443.588723	4080.232667	1328.590820	116.320000
-7443.588723	4080.232667	1327.496094	106.241982
-7443.588723	4080.232667	1326.402344	85.272720
-7443.588723	4080.232667	1325.307617	249.398605
-7443.588723	4080.232667	1324.212891	170.585999
-7443.588723	4080.232667	1323.117188	123.818375
-7443.588723	4080.232667	1322.022461	258.350616
-7443.588723	4080.232667	1320.926758	161.109955
-7443.588723	4080.232667	1319.831055	145.392578
-7443.588723	4080.232667	1318.735352	273.431549
-7443.588723	4080.232667	1317.638672	122.518250
-7443.588723	4080.232667	1316.542969	88.629532
-7443.588723	4080.232667	1315.446289	130.118011
-7443.588723	4080.232667	1314.349609	99.627197
-7443.588723	4080.232667	1313.251953	80.388077
-7443.588723	4080.232667	1312.155273	-48.667847
-7443.588723	4080.232667	1311.057617	125.255791
-7443.588723	4080.232667	1309.959961	115.989754
-7443.588723	4080.232667	1308.862305	123.011169
-7443.588723	4080.232667	1307.763672	191.845215
-7443.588723	4080.232667	1306.665039	240.436707
-7443.588723	4080.232667	1305.566406	185.057693
-7443.588723	4080.232667	1304.467773	145.121811
-7443.588723	4080.232667	1303.369141	56.331753
-7443.588723	4080.232667	1302.269531	83.926773
-7443.588723	4080.232667	1301.169922	182.213699
-7443.588723	4080.232667	1300.070313	21.116873
-7443.588723	4080.232667	1298.970703	61.877048
-7443.588723	4080.232667	1297.870117	36.901634
-7443.588723	4080.232667	1296.769531	302.931793
-7443.588723	4080.232667	1295.668945	85.797089
-7443.588723	4080.232667	1294.568359	304.245117
-7443.588723	4080.232667	1293.466797	219.992981
-7443.588723	4080.232667	1292.366211	-16.684092
-7443.588723	4080.232667	1291.264648	-97.038795
-7443.588723	4080.232667	1290.162109	-12.562716
-7443.588723	4080.232667	1289.060547	118.117661
-7443.588723	4080.232667	1287.958008	127.092705
-7443.588723	4080.232667	1286.855469	81.902863
-7443.588723	4080.232667	1285.752930	-0.341078
-7443.588723	4080.232667	1284.650391	9.057597
-7443.588723	4080.232667	1283.546875	61.208965
-7443.588723	4080.232667	1282.444336	1.589471
-7443.588723	4080.232667	1281.339844	110.493477
-7443.588723	4080.232667	1280.236328	24.575665
-7443.588723	4080.232667	1279.132813	-67.292152
-7443.588723	4080.232667	1278.028320	15.637007
-7443.588723	4080.232667	1276.923828	-99.632011
-7443.588723	4080.232667	1275.819336	22.410931
-7443.588723	4080.232667	1274.713867	181.173080
-7443.588723	4080.232667	1273.608398	51.582947
-7443.588723	4080.232667	1272.503906	-119.074638
-7443.588723	4080.232667	1271.397461	76.947884
-7443.588723	4080.232667	1270.291992	48.830399
-7443.588723	4080.232667	1269.185547	79.365776
-7443.588723	4080.232667	1268.080078	5.452173
-7443.588723	4080.232667	1266.972656	-35.340145
-7443.588723	4080.232667	1265.866211	-99.474350
-7443.588723	4080.232667	1264.759766	-77.150452
-7443.588723	4080.232667	1263.652344	15.322327
-7443.588723	4080.232667	1262.544922	20.920893
-7443.588723	4080.232667	1261.436523	0.168098
-7443.588723	4080.232667	1260.329102	43.477188
-7443.588723	4080.232667	1259.220703	66.212914
-7443.588723	4080.232667	1258.112305	20.695797
-7443.588723	4080.232667	1257.003906	132.340179
-7443.588723	4080.232667	1255.895508	-42.711098
-7443.588723	4080.232667	1254.786133	-227.521927
-7443.588723	4080.232667	1253.676758	56.480995
-7443.588723	4080.232667	1252.567383	-177.961838
-7443.588723	4080.232667	1251.458008	-1.002518
-7443.588723	4080.232667	1250.347656	-5.258557
-7443.588723	4080.232667	1249.237305	-107.727104
-7443.588723	4080.232667	1248.126953	53.851849
-7443.588723	4080.232667	1247.016602	38.245148
-7443.588723	4080.232667	1245.905273	72.031654
-7443.588723	4080.232667	1244.793945	-77.490990
-7443.588723	4080.232667	1243.682617	-2.594030
-7443.588723	4080.232667	1242.571289	-29.168842
-7443.588723	4080.232667	1241.459961	13.984020
-7443.588723	4080.232667	1240.347656	-151.013519
-7443.588723	4080.232667	1239.235352	-69.449898
-7443.588723	4080.232667	1238.123047	81.147774
-7443.588723	4080.232667	1237.009766	-61.711823
-7443.588723	4080.232667	1235.897461	-29.916502
-7443.588723	4080.232667	1234.784180	216.471817
-7443.588723	4080.232667	1233.670898	-64.248505
-7443.588723	4080.232667	1232.556641	-88.094101
-7443.588723	4080.232667	1231.443359	38.951351
-7443.588723	4080.232667	1230.329102	-3.398544
-7443.588723	4080.232667	1229.214844	7.945512
-7443.588723	4080.232667	1228.099609	-26.680531
-7443.588723	4080.232667	1226.985352	61.274681
-7443.588723	4080.232667	1225.870117	3.392037
-7443.588723	4080.232667	1224.754883	19.306675
-7443.588723	4080.232667	1223.639648	-155.091568
-7443.588723	4080.232667	1222.523438	-17.709867
-7443.588723	4080.232667	1221.408203	-15.248943
-7443.588723	4080.232667	1220.291992	115.322395
-7443.588723	4080.232667	1219.174805	49.879356
-7443.588723	4080.232667	1218.058594	98.056107
-7443.588723	4080.232667	1216.941406	-41.253803
-7443.588723	4080.232667	1215.824219	149.808289
-7443.588723	4080.232667	1214.707031	-29.499613
-7443.588723	4080.232667	1213.589844	25.555077
-7443.588723	4080.232667	1212.471680	114.642395
-7443.588723	4080.232667	1211.353516	73.710838
-7443.588723	4080.232667	1210.235352	-6.861506
-7443.588723	4080.232667	1209.117188	121.917732
-7443.588723	4080.232667	1207.998047	-58.494289
-7443.588723	4080.232667	1206.878906	170.138000
-7443.588723	4080.232667	1205.759766	108.885094
-7443.588723	4080.232667	1204.640625	-19.898355
-7443.588723	4080.232667	1203.520508	-2.641898
-7443.588723	4080.232667	1202.401367	-15.627494
-7443.588723	4080.232667	1201.281250	142.701569
-7443.588723	4080.232667	1200.160156	155.640396
-7443.588723	4080.232667	1199.040039	135.649216
-7443.588723	4080.232667	1197.918945	63.610893
-7443.588723	4080.232667	1196.797852	134.980759
-7443.588723	4080.232667	1195.676758	263.220917
-7443.588723	4080.232667	1194.555664	161.439911
-7443.588723	4080.232667	1193.433594	120.910309
-7443.588723	4080.232667	1192.311523	81.874557
-7443.588723	4080.232667	1191.189453	105.491051
-7443.588723	4080.232667	1190.066406	89.044029
-7443.588723	4080.232667	1188.944336	123.464577
-7443.588723	4080.232667	1187.821289	60.033882
-7443.588723	4080.232667	1186.698242	108.557915
-7443.588723	4080.232667	1185.574219	97.380463
-7443.588723	4080.232667	1184.451172	14.176841
-7443.588723	4080.232667	1183.327148	-45.814816
-7443.588723	4080.232667	1182.203125	77.049416
-7443.588723	4080.232667	1181.078125	83.873024
-7443.588723	4080.232667	1179.954102	50.191814
-7443.588723	4080.232667	1178.829102	-62.002285
-7443.588723	4080.232667	1177.704102	-44.919781
-7443.588723	4080.232667	1176.579102	-69.230370
-7443.588723	4080.232667	1175.453125	-67.948799
-7443.588723	4080.232667	1174.327148	-93.429062
-7443.588723	4080.232667	1173.201172	126.180618
-7443.588723	4080.232667	1172.075195	58.570911
-7443.588723	4080.232667	1170.949219	13.167827
-7443.588723	4080.232667	1169.822266	-143.572754
-7443.588723	4080.232667	1168.695313	-155.962723
-7443.588723	4080.232667	1167.568359	39.530380
-7443.588723	4080.232667	1166.440430	11.455169
-7443.588723	4080.232667	1165.313477	-112.830742
-7443.588723	4080.232667	1164.185547	-86.301697
-7443.588723	4080.232667	1163.057617	86.463936
-7443.588723	4080.232667	1161.928711	-83.794899
-7443.588723	4080.232667	1160.800781	16.934917
-7443.588723	4080.232667	1159.671875	-70.587753
-7443.588723	4080.232667	1158.541992	-114.190849
-7443.588723	4080.232667	1157.413086	-133.833725
-7443.588723	4080.232667	1156.283203	-209.804550
-7443.588723	4080.232667	1155.154297	-120.835991
-7443.588723	4080.232667	1154.023438	-57.829414
-7443.588723	4080.232667	1152.893555	33.410114
-7443.588723	4080.232667	1151.763672	-30.369797
-7443.588723	4080.232667	1150.632813	-230.723404
-7443.588723	4080.232667	1149.501953	19.105291
-7443.588723	4080.232667	1148.370117	-75.443878
-7443.588723	4080.232667	1147.239258	62.080479
-7443.588723	4080.232667	1146.107422	-44.976528
-7443.588723	4080.232667	1144.975586	-35.081390
-7443.588723	4080.232667	1143.843750	29.707657
-7443.588723	4080.232667	1142.710938	-90.618935
-7443.588723	4080.232667	1141.578125	241.412903
-7443.588723	4080.232667	1140.445313	48.166821
-7443.588723	4080.232667	1139.312500	9.402961
-7443.588723	4080.232667	1138.178711	87.214203
-7443.588723	4080.232667	1137.045898	42.980366
-7443.588723	4080.232667	1135.912109	103.531334
-7443.588723	4080.232667	1134.777344	153.067581
-7443.588723	4080.232667	1133.643555	169.951614
-7443.588723	4080.232667	1132.508789	230.450592
-7443.588723	4080.232667	1131.374023	213.524338
-7443.588723	4080.232667	1130.239258	239.928146
-7443.588723	4080.232667	1129.104492	157.262085
-7443.588723	4080.232667	1127.968750	365.218323
-7443.588723	4080.232667	1126.833008	242.689529
-7443.588723	4080.232667	1125.697266	167.381195
-7443.588723	4080.232667	1124.560547	264.713959
-7443.588723	4080.232667	1123.424805	314.794281
-7443.588723	4080.232667	1122.288086	282.152283
-7443.588723	4080.232667	1121.151367	178.979706
-7443.588723	4080.232667	1120.013672	287.846405
-7443.588723	4080.232667	1118.876953	318.938354
-7443.588723	4080.232667	1117.739258	230.810760
-7443.588723	4080.232667	1116.601563	184.460220
-7443.588723	4080.232667	1115.462891	204.016022
-7443.588723	4080.232667	1114.324219	88.456329
-7443.588723	4080.232667	1113.186523	342.261444
-7443.588723	4080.232667	1112.046875	305.082520
-7443.588723	4080.232667	1110.908203	284.378906
-7443.588723	4080.232667	1109.769531	205.472260
-7443.588723	4080.232667	1108.629883	269.738647
-7443.588723	4080.232667	1107.490234	177.068726
-7443.588723	4080.232667	1106.349609	-21.285543
-7443.588723	4080.232667	1105.209961	253.498840
-7443.588723	4080.232667	1104.069336	317.849060
-7443.588723	4080.232667	1102.928711	298.740936
-7443.588723	4080.232667	1101.787109	340.272034
-7443.588723	4080.232667	1100.646484	365.381927
-7443.588723	4080.232667	1099.504883	301.528748
-7443.588723	4080.232667	1098.363281	184.146515
-7443.588723	4080.232667	1097.221680	274.428314
-7443.588723	4080.232667	1096.079102	358.092590
-7443.588723	4080.232667	1094.936523	279.672180
-7443.588723	4080.232667	1093.793945	319.411011
-7443.588723	4080.232667	1092.651367	262.711121
-7443.588723	4080.232667	1091.507813	349.867950
-7443.588723	4080.232667	1090.364258	357.260315
-7443.588723	4080.232667	1089.220703	381.277649
-7443.588723	4080.232667	1088.077148	349.614044
-7443.588723	4080.232667	1086.933594	456.948059
-7443.588723	4080.232667	1085.789063	275.883484
-7443.588723	4080.232667	1084.644531	217.528885
-7443.588723	4080.232667	1083.499023	80.340546
-7443.588723	4080.232667	1082.354492	182.883942
-7443.588723	4080.232667	1081.208984	317.850006
-7443.588723	4080.232667	1080.063477	271.694336
-7443.588723	4080.232667	1078.917969	307.398193
-7443.588723	4080.232667	1077.771484	358.400055
-7443.588723	4080.232667	1076.625977	479.443695
-7443.588723	4080.232667	1075.479492	324.857300
-7443.588723	4080.232667	1074.332031	437.528320
-7443.588723	4080.232667	1073.185547	439.635468
-7443.588723	4080.232667	1072.038086	372.850311
-7443.588723	4080.232667	1070.890625	479.285248
-7443.588723	4080.232667	1069.743164	284.857178
-7443.588723	4080.232667	1068.594727	400.487610
-7443.588723	4080.232667	1067.447266	495.385193
-7443.588723	4080.232667	1066.298828	474.896759
-7443.588723	4080.232667	1065.149414	445.787811
-7443.588723	4080.232667	1064.000977	608.616028
-7443.588723	4080.232667	1062.851563	663.467102
-7443.588723	4080.232667	1061.702148	359.764587
-7443.588723	4080.232667	1060.552734	493.861023
-7443.588723	4080.232667	1059.402344	566.863037
-7443.588723	4080.232667	1058.252930	532.203918
-7443.588723	4080.232667	1057.102539	525.913330
-7443.588723	4080.232667	1055.951172	398.914063
-7443.588723	4080.232667	1054.800781	260.885803
-7443.588723	4080.232667	1053.649414	400.261230
-7443.588723	4080.232667	1052.498047	230.385178
-7443.588723	4080.232667	1051.346680	268.544922
-7443.588723	4080.232667	1050.194336	451.638702
-7443.588723	4080.232667	1049.042969	416.957275
-7443.588723	4080.232667	1047.890625	307.800934
-7443.588723	4080.232667	1046.738281	474.803955
-7443.588723	4080.232667	1045.584961	294.104645
-7443.588723	4080.232667	1044.431641	375.881317
-7443.588723	4080.232667	1043.278320	438.716248
-7443.588723	4080.232667	1042.125000	394.690704
-7443.588723	4080.232667	1040.971680	364.183777
-7443.588723	4080.232667	1039.817383	327.964508
-7443.588723	4080.232667	1038.663086	314.378479
-7443.588723	4080.232667	1037.508789	251.684799
-7443.588723	4080.232667	1036.353516	312.772430
-7443.588723	4080.232667	1035.198242	362.059418
-7443.588723	4080.232667	1034.042969	319.279510
-7443.588723	4080.232667	1032.887695	271.173218
-7443.588723	4080.232667	1031.732422	414.477142
-7443.588723	4080.232667	1030.576172	432.491272
-7443.588723	4080.232667	1029.419922	234.708160
-7443.588723	4080.232667	1028.263672	367.191650
-7443.588723	4080.232667	1027.106445	247.921219
-7443.588723	4080.232667	1025.949219	434.736359
-7443.588723	4080.232667	1024.792969	156.206238
-7443.588723	4080.232667	1023.634766	188.876755
-7443.588723	4080.232667	1022.477539	220.631485
-7443.588723	4080.232667	1021.319336	105.710999
-7443.588723	4080.232667	1020.161133	91.656242
-7443.588723	4080.232667	1019.002930	47.159027
-7443.588723	4080.232667	1017.843750	161.882126
-7443.588723	4080.232667	1016.684570	268.940887
-7443.588723	4080.232667	1015.525391	405.328918
-7443.588723	4080.232667	1014.366211	326.102356
-7443.588723	4080.232667	1013.207031	152.945236
-7443.588723	4080.232667	1012.046875	236.813110
-7443.588723	4080.232667	1010.886719	140.769867
-7443.588723	4080.232667	1009.726563	125.732971
-7443.588723	4080.232667	1008.565430	47.436192
-7443.588723	4080.232667	1007.404297	43.997280
-7443.588723	4080.232667	1006.243164	120.753662
-7443.588723	4080.232667	1005.082031	300.982239
-7443.588723	4080.232667	1003.920898	149.364227
-7443.588723	4080.232667	1002.758789	309.908569
-7443.588723	4080.232667	1001.596680	398.506744
-7443.588723	4080.232667	1000.433594	210.543625
-7443.588723	4080.232667	999.271484	137.914185
-7443.588723	4080.232667	998.108398	128.666916
-7443.588723	4080.232667	996.945313	-15.922764
-7443.588723	4080.232667	995.782227	134.560806
-7443.588723	4080.232667	994.618164	-39.664665
-7443.588723	4080.232667	993.454102	4.231116
-7443.588723	4080.232667	992.290039	105.926498
-7443.588723	4080.232667	991.125977	-21.913820
-7443.588723	4080.232667	989.960938	11.045918
-7443.588723	4080.232667	988.796875	177.932922
-7443.588723	4080.232667	987.630859	58.704319
-7443.588723	4080.232667	986.465820	73.601547
-7443.588723	4080.232667	985.300781	97.327568
-7443.588723	4080.232667	984.134766	63.229713
-7443.588723	4080.232667	982.968750	-7.828119
-7443.588723	4080.232667	981.801758	-21.544537
-7443.588723	4080.232667	980.635742	88.644737
-7443.588723	4080.232667	979.468750	47.072247
-7443.588723	4080.232667	978.301758	-140.317871
-7443.588723	4080.232667	977.133789	-142.617874
-7443.588723	4080.232667	975.966797	62.097126
-7443.588723	4080.232667	974.798828	-80.307327
-7443.588723	4080.232667	973.630859	-105.138908
-7443.588723	4080.232667	972.461914	131.486588
-7443.588723	4080.232667	971.293945	-104.503723
-7443.588723	4080.232667	970.125000	87.502548
-7443.588723	4080.232667	968.956055	78.288689
-7443.588723	4080.232667	967.786133	7.465372
-7443.588723	4080.232667	966.617188	273.156250
-7443.588723	4080.232667	965.447266	109.662003
-7443.588723	4080.232667	964.276367	21.175680
-7443.588723	4080.232667	963.106445	87.767403
-7443.588723	4080.232667	961.935547	39.364651
-7443.588723	4080.232667	960.764648	179.218704
-7443.588723	4080.232667	959.593750	154.424088
-7443.588723	4080.232667	958.422852	206.862457
-7443.588723	4080.232667	957.250977	43.573009
-7443.588723	4080.232667	956.079102	23.364763
-7443.588723	4080.232667	954.907227	2.562730
-7443.588723	4080.232667	953.734375	250.287125
-7443.588723	4080.232667	952.562500	24.116301
-7443.588723	4080.232667	951.389648	-71.467934
-7443.588723	4080.232667	950.215820	90.486351
-7443.588723	4080.232667	949.042969	147.512695
-7443.588723	4080.232667	947.869141	-52.443329
-7443.588723	4080.232667	946.695313	11.938220
-7443.588723	4080.232667	945.521484	121.439392
-7443.588723	4080.232667	944.346680	-92.681015
-7443.588723	4080.232667	943.172852	-136.735031
-7443.588723	4080.232667	941.998047	3.011889
-7443.588723	4080.232667	940.822266	53.245079
-7443.588723	4080.232667	939.647461	223.298111
-7443.588723	4080.232667	938.471680	183.918152
-7443.588723	4080.232667	937.295898	142.057053
-7443.588723	4080.232667	936.119141	231.961838
-7443.588723	4080.232667	934.943359	322.159485
-7443.588723	4080.232667	933.766602	190.708633
-7443.588723	4080.232667	932.589844	200.661743
-7443.588723	4080.232667	931.413086	269.542114
-7443.588723	4080.232667	930.235352	357.152405
-7443.588723	4080.232667	929.057617	112.564606
-7443.588723	4080.232667	927.879883	186.183868
-7443.588723	4080.232667	926.702148	198.435806
-7443.588723	4080.232667	925.523438	69.383774
-7443.588723	4080.232667	924.344727	43.985577
-7443.588723	4080.232667	923.166016	173.989090
-7443.588723	4080.232667	921.987305	80.317993
-7443.588723	4080.232667	920.807617	186.735809
-7443.588723	4080.232667	919.627930	186.780426
-7443.588723	4080.232667	919.497070	123.693657
-7443.588723	4080.232667	918.331055	48.910477
-7443.588723	4080.232667	917.165039	87.061386
-7443.588723	4080.232667	915.999023	-232.253250
-7443.588723	4080.232667	914.833008	-130.572678
-7443.588723	4080.232667	913.666016	-17.175396
-7443.588723	4080.232667	912.499023	51.526222
-7443.588723	4080.232667	911.332031	0.367903
-7443.588723	4080.232667	910.165039	170.068161
-7443.588723	4080.232667	908.997070	-195.818451
-7443.588723	4080.232667	907.830078	-2.648783
-7443.588723	4080.232667	906.661133	12.014695
-7443.588723	4080.232667	905.493164	-100.075584
-7443.588723	4080.232667	904.325195	-183.948105
-7443.588723	4080.232667	903.156250	-176.265106
-7443.588723	4080.232667	901.987305	30.829493
-7443.588723	4080.232667	900.818359	-153.837418
-7443.588723	4080.232667	899.648438	-35.914394
-7443.588723	4080.232667	898.478516	-61.040508
-7443.588723	4080.232667	897.308594	-130.678940
-7443.588723	4080.232667	896.138672	-8.102413
-7443.588723	4080.232667	894.968750	72.263954
-7443.588723	4080.232667	893.797852	21.429848
-7443.588723	4080.232667	892.626953	-38.735107
-7443.588723	4080.232667	891.456055	83.789284
-7443.588723	4080.232667	890.284180	213.306686
-7443.588723	4080.232667	889.113281	146.172684
-7443.588723	4080.232667	887.941406	58.025196
-7443.588723	4080.232667	886.768555	283.455719
-7443.588723	4080.232667	885.596680	207.054138
-7443.588723	4080.232667	884.423828	23.122463
-7443.588723	4080.232667	883.250977	192.369019
-7443.588723	4080.232667	882.078125	174.544403
-7443.588723	4080.232667	880.905273	-20.884983
-7443.588723	4080.232667	879.731445	-75.999161
-7443.588723	4080.232667	878.557617	242.751846
-7443.588723	4080.232667	877.383789	96.557083
-7443.588723	4080.232667	876.209961	92.907341
-7443.588723	4080.232667	875.035156	189.688446
-7443.588723	4080.232667	873.860352	97.366295
-7443.588723	4080.232667	872.685547	-11.228528
-7443.588723	4080.232667	871.510742	10.925988
-7443.588723	4080.232667	870.334961	91.425690
-7443.588723	4080.232667	869.159180	69.290039
-7443.588723	4080.232667	867.983398	5.214831
-7443.588723	4080.232667	866.807617	-23.828760
-7443.588723	4080.232667	865.630859	59.063770
-7443.588723	4080.232667	864.454102	146.615829
-7443.588723	4080.232667	863.277344	85.032959
-7443.588723	4080.232667	862.100586	67.770645
-7443.588723	4080.232667	860.922852	87.816460
-7443.588723	4080.232667	859.745117	100.901489
-7443.588723	4080.232667	858.567383	-81.558838
-7443.588723	4080.232667	857.389648	-135.882507
-7443.588723	4080.232667	856.210938	40.252117
-7443.588723	4080.232667	855.032227	81.395271
-7443.588723	4080.232667	853.853516	-75.183159
-7443.588723	4080.232667	852.674805	-20.008238
-7443.588723	4080.232667	851.495117	2.624532
-7443.588723	4080.232667	850.315430	48.533794
-7443.588723	4080.232667	849.135742	-86.844620
-7443.588723	4080.232667	847.956055	-82.694023
-7443.588723	4080.232667	846.775391	102.724335
-7443.588723	4080.232667	845.595703	160.337067
-7443.588723	4080.232667	844.415039	43.775734
-7443.588723	4080.232667	843.233398	-30.900776
-7443.588723	4080.232667	842.052734	-70.686958
-7443.588723	4080.232667	840.871094	63.663124
-7443.588723	4080.232667	839.689453	23.952085
-7443.588723	4080.232667	838.506836	35.339695
-7443.588723	4080.232667	837.325195	65.317467
-7443.588723	4080.232667	836.142578	58.216492
-7443.588723	4080.232667	834.959961	118.398773
-7443.588723	4080.232667	833.777344	-74.089691
-7443.588723	4080.232667	832.593750	-27.729670
-7443.588723	4080.232667	831.410156	11.698110
-7443.588723	4080.232667	830.226563	99.801125
-7443.588723	4080.232667	829.042969	85.990555
-7443.588723	4080.232667	827.858398	-115.355919
-7443.588723	4080.232667	826.673828	53.878262
-7443.588723	4080.232667	825.489258	79.559296
-7443.588723	4080.232667	824.304688	315.879547
-7443.588723	4080.232667	823.120117	-72.617104
-7443.588723	4080.232667	821.934570	20.285042
-7443.588723	4080.232667	820.749023	-51.032104
-7443.588723	4080.232667	819.562500	-48.278625
-7443.588723	4080.232667	818.376953	190.336487
-7443.588723	4080.232667	817.190430	119.149017
-7443.588723	4080.232667	816.003906	221.360031
-7443.588723	4080.232667	814.817383	90.198853
-7443.588723	4080.232667	813.629883	298.718170
-7443.588723	4080.232667	812.442383	186.152145
-7443.588723	4080.232667	811.254883	-39.477028
-7443.588723	4080.232667	810.067383	141.351944
-7443.588723	4080.232667	808.878906	105.176186
-7443.588723	4080.232667	807.690430	4.438586
-7443.588723	4080.232667	806.501953	7.604701
-7443.588723	4080.232667	805.313477	-56.087482
-7443.588723	4080.232667	804.124023	-184.290253
-7443.588723	4080.232667	802.934570	3.492838
-7443.588723	4080.232667	801.745117	-23.161428
-7443.588723	4080.232667	800.555664	-8.279778
-7443.588723	4080.232667	799.365234	52.720913
-7443.588723	4080.232667	798.175781	5.446702
-7443.588723	4080.232667	796.985352	-138.514893
-7443.588723	4080.232667	795.793945	19.307468
-7443.588723	4080.232667	794.603516	-122.224533
-7443.588723	4080.232667	793.412109	100.052917
-7443.588723	4080.232667	792.220703	48.391682
-7443.588723	4080.232667	791.028320	-3.211968
-7443.588723	4080.232667	789.836914	-181.296036
-7443.588723	4080.232667	788.644531	20.242880
-7443.588723	4080.232667	787.452148	-178.402130
-7443.588723	4080.232667	786.258789	-57.350975
-7443.588723	4080.232667	785.066406	-19.074547
-7443.588723	4080.232667	783.873047	26.112717
-7443.588723	4080.232667	782.679688	75.906662
-7443.588723	4080.232667	781.485352	3.957914
-7443.588723	4080.232667	780.291992	-47.264252
-7443.588723	4080.232667	779.097656	9.489317
-7443.588723	4080.232667	777.903320	128.231689
-7443.588723	4080.232667	776.708008	-191.451920
-7443.588723	4080.232667	775.512695	-79.546585
-7443.588723	4080.232667	774.318359	-36.497406
-7443.588723	4080.232667	773.122070	98.318962
-7443.588723	4080.232667	771.926758	54.213158
-7443.588723	4080.232667	770.730469	42.252861
-7443.588723	4080.232667	769.534180	-43.040337
-7443.588723	4080.232667	768.337891	-109.941689
-7443.588723	4080.232667	767.141602	24.856550
-7443.588723	4080.232667	765.944336	134.420059
-7443.588723	4080.232667	764.747070	-69.849808
-7443.588723	4080.232667	763.549805	181.707169
-7443.588723	4080.232667	762.351563	108.056084
-7443.588723	4080.232667	761.154297	36.737629
-7443.588723	4080.232667	759.956055	244.679947
-7443.588723	4080.232667	758.757813	205.427795
-7443.588723	4080.232667	757.558594	95.288025
-7443.588723	4080.232667	756.359375	250.524078
-7443.588723	4080.232667	755.160156	391.984558
-7443.588723	4080.232667	753.960938	259.044403
-7443.588723	4080.232667	752.761719	299.887177
-7443.588723	4080.232667	751.561523	66.486626
-7443.588723	4080.232667	750.361328	98.230141
-7443.588723	4080.232667	749.160156	4.329783
-7443.588723	4080.232667	747.959961	84.044662
-7443.588723	4080.232667	746.758789	-78.309402
-7443.588723	4080.232667	745.557617	49.338463
-7443.588723	4080.232667	744.356445	261.384583
-7443.588723	4080.232667	743.154297	229.173737
-7443.588723	4080.232667	741.952148	317.893951
-7443.588723	4080.232667	740.750000	276.555786
-7443.588723	4080.232667	739.547852	187.339661
-7443.588723	4080.232667	738.344727	262.324677
-7443.588723	4080.232667	737.142578	428.451508
-7443.588723	4080.232667	735.939453	389.383484
-7443.588723	4080.232667	734.735352	325.261902
-7443.588723	4080.232667	733.532227	575.540100
-7443.588723	4080.232667	732.328125	399.777832
-7443.588723	4080.232667	731.124023	490.509705
-7443.588723	4080.232667	729.918945	690.475769
-7443.588723	4080.232667	728.714844	430.535767
-7443.588723	4080.232667	727.509766	345.925964
-7443.588723	4080.232667	726.303711	500.243652
-7443.588723	4080.232667	725.098633	381.494049
-7443.588723	4080.232667	723.892578	690.356689
-7443.588723	4080.232667	722.686523	630.698303
-7443.588723	4080.232667	721.480469	546.034058
-7443.588723	4080.232667	720.274414	506.838226
-7443.588723	4080.232667	719.067383	435.822296
-7443.588723	4080.232667	717.860352	348.903809
-7443.588723	4080.232667	716.653320	505.043274
-7443.588723	4080.232667	715.445313	588.416931
-7443.588723	4080.232667	714.238281	308.432648
-7443.588723	4080.232667	713.030273	262.352570
-7443.588723	4080.232667	711.821289	154.980820
-7443.588723	4080.232667	710.613281	240.490067
-7443.588723	4080.232667	709.404297	230.645172
-7443.588723	4080.232667	708.195313	379.537598
-7443.588723	4080.232667	706.986328	331.036987
-7443.588723	4080.232667	705.776367	298.387665
-7443.588723	4080.232667	704.566406	365.444916
-7443.588723	4080.232667	703.356445	208.067596
-7443.588723	4080.232667	702.146484	211.582367
-7443.588723	4080.232667	700.935547	230.906281
-7443.588723	4080.232667	699.724609	429.094879
-7443.588723	4080.232667	698.513672	337.309753
-7443.588723	4080.232667	697.302734	415.302399
-7443.588723	4080.232667	696.090820	330.244568
-7443.588723	4080.232667	694.878906	360.576660
-7443.588723	4080.232667	693.666992	336.539490
-7443.588723	4080.232667	692.455078	316.977234
-7443.588723	4080.232667	691.242188	342.595612
-7443.588723	4080.232667	690.029297	524.152710
-7443.588723	4080.232667	688.816406	377.788574
-7443.588723	4080.232667	687.602539	412.230377
-7443.588723	4080.232667	686.389648	649.955017
-7443.588723	4080.232667	685.175781	476.349762
-7443.588723	4080.232667	683.960938	526.357239
-7443.588723	4080.232667	682.747070	513.041687
-7443.588723	4080.232667	681.532227	628.351563
-7443.588723	4080.232667	680.317383	671.306091
-7443.588723	4080.232667	679.102539	790.897888
-7443.588723	4080.232667	677.886719	714.066528
-7443.588723	4080.232667	676.670898	677.794312
-7443.588723	4080.232667	675.455078	819.627686
-7443.588723	4080.232667	674.239258	704.267334
-7443.588723	4080.232667	673.022461	744.425110
-7443.588723	4080.232667	671.805664	723.627563
-7443.588723	4080.232667	670.588867	587.826294
-7443.588723	4080.232667	669.372070	857.528870
-7443.588723	4080.232667	668.154297	825.196716
-7443.588723	4080.232667	666.936523	648.659485
-7443.588723	4080.232667	665.718750	573.424561
-7443.588723	4080.232667	664.500977	680.464294
-7443.588723	4080.232667	663.282227	681.587524
-7443.588723	4080.232667	662.063477	675.864563
-7443.588723	4080.232667	660.844727	658.798889
-7443.588723	4080.232667	659.625000	630.396484
-7443.588723	4080.232667	658.405273	811.034546
-7443.588723	4080.232667	657.185547	634.029053
-7443.588723	4080.232667	655.965820	598.603516
-7443.588723	4080.232667	654.745117	610.282104
-7443.588723	4080.232667	653.525391	684.761719
-7443.588723	4080.232667	652.303711	747.871216
-7443.588723	4080.232667	651.083008	696.308655
-7443.588723	4080.232667	649.861328	698.548279
-7443.588723	4080.232667	648.640625	687.208435
-7443.588723	4080.232667	647.417969	646.583008
-7443.588723	4080.232667	646.196289	1020.992249
-7443.588723	4080.232667	644.973633	982.332520
-7443.588723	4080.232667	643.750977	1008.620850
-7443.588723	4080.232667	642.528320	696.162903
-7443.588723	4080.232667	641.305664	888.179260
-7443.588723	4080.232667	640.082031	887.221863
-7443.588723	4080.232667	638.858398	872.698608
-7443.588723	4080.232667	637.634766	741.550110
-7443.588723	4080.232667	636.410156	923.954834
-7443.588723	4080.232667	635.185547	763.492065
-7443.588723	4080.232667	633.960938	786.587769
-7443.588723	4080.232667	632.736328	686.420837
-7443.588723	4080.232667	631.510742	749.562012
-7443.588723	4080.232667	630.285156	778.984741
-7443.588723	4080.232667	629.059570	792.608215
-7443.588723	4080.232667	627.833984	752.414124
-7443.588723	4080.232667	626.607422	848.525757
-7443.588723	4080.232667	625.380859	736.531250
-7443.588723	4080.232667	624.154297	624.456360
-7443.588723	4080.232667	622.927734	735.790771
-7443.588723	4080.232667	621.700195	728.518799
-7443.588723	4080.232667	620.472656	738.991760
-7443.588723	4080.232667	619.245117	925.774719
-7443.588723	4080.232667	618.016602	766.224731
-7443.588723	4080.232667	616.788086	912.469055
-7443.588723	4080.232667	615.559570	895.576538
-7443.588723	4080.232667	614.331055	869.630981
-7443.588723	4080.232667	613.101563	834.635620
-7443.588723	4080.232667	611.872070	824.057129
-7443.588723	4080.232667	610.642578	741.983215
-7443.588723	4080.232667	609.413086	720.010254
-7443.588723	4080.232667	608.182617	733.577026
-7443.588723	4080.232667	606.952148	682.367371
-7443.588723	4080.232667	605.721680	893.982910
-7443.588723	4080.232667	604.491211	557.329773
-7443.588723	4080.232667	603.259766	614.919678
-7443.588723	4080.232667	602.028320	799.281799
-7443.588723	4080.232667	600.796875	640.563843
-7443.588723	4080.232667	599.564453	728.850342
-7443.588723	4080.232667	598.332031	643.379028
-7443.588723	4080.232667	597.099609	597.857300
-7443.588723	4080.232667	595.867188	563.342896
-7443.588723	4080.232667	594.633789	628.784607
-7443.588723	4080.232667	593.400391	758.545715
-7443.588723	4080.232667	592.166992	672.478210
-7443.588723	4080.232667	590.933594	646.323730
-7443.588723	4080.232667	589.699219	608.931152
-7443.588723	4080.232667	588.464844	560.311829
-7443.588723	4080.232667	587.230469	631.524963
-7443.588723	4080.232667	585.995117	700.348877
-7443.588723	4080.232667	584.760742	673.546143
-7443.588723	4080.232667	583.525391	584.464844
-7443.588723	4080.232667	582.289063	661.732361
-7443.588723	4080.232667	581.053711	707.780029
-7443.588723	4080.232667	579.817383	549.584229
-7443.588723	4080.232667	578.581055	431.249451
-7443.588723	4080.232667	577.343750	550.093689
-7443.588723	4080.232667	576.107422	531.317749
-7443.588723	4080.232667	574.870117	627.672852
-7443.588723	4080.232667	573.631836	599.761536
-7443.588723	4080.232667	572.394531	793.296021
-7443.588723	4080.232667	571.156250	760.684387
-7443.588723	4080.232667	569.917969	533.084717
-7443.588723	4080.232667	568.679688	442.735748
-7443.588723	4080.232667	567.440430	657.779358
-7443.588723	4080.232667	566.202148	545.074402
-7443.588723	4080.232667	564.961914	797.379761
-7443.588723	4080.232667	563.722656	702.153442
-7443.588723	4080.232667	562.482422	633.388611
-7443.588723	4080.232667	561.243164	721.548645
-7443.588723	4080.232667	560.001953	648.158081
-7443.588723	4080.232667	558.761719	707.317810
-7443.588723	4080.232667	557.520508	543.143555
-7443.588723	4080.232667	556.279297	549.055725
-7443.588723	4080.232667	555.038086	707.275940
-7443.588723	4080.232667	553.795898	670.978943
-7443.588723	4080.232667	552.554688	557.326843
-7443.588723	4080.232667	551.311523	326.615234
-7443.588723	4080.232667	550.069336	510.829956
-7443.588723	4080.232667	548.826172	469.798859
-7443.588723	4080.232667	547.583984	382.375214
-7443.588723	4080.232667	546.339844	568.375610
-7443.588723	4080.232667	545.096680	438.886322
-7443.588723	4080.232667	543.852539	536.437134
-7443.588723	4080.232667	542.608398	517.043457
-7443.588723	4080.232667	541.364258	453.503632
-7443.588723	4080.232667	540.119141	469.220734
-7443.588723	4080.232667	538.875000	341.684937
-7443.588723	4080.232667	537.628906	403.509735
-7443.588723	4080.232667	536.383789	449.834808
-7443.588723	4080.232667	535.137695	300.143463
-7443.588723	4080.232667	533.892578	282.511444
-7443.588723	4080.232667	532.645508	306.614319
-7443.588723	4080.232667	531.399414	385.654053
-7443.588723	4080.232667	530.152344	554.771912
-7443.588723	4080.232667	528.905273	510.461060
-7443.588723	4080.232667	527.658203	105.563179
-7443.588723	4080.232667	526.410156	360.191254
-7443.588723	4080.232667	525.163086	219.111359
-7443.588723	4080.232667	523.914063	80.227989
-7443.588723	4080.232667	522.666016	204.968750
-7443.588723	4080.232667	521.416992	46.305786
-7443.588723	4080.232667	520.167969	256.551025
-7443.588723	4080.232667	518.918945	255.935104
-7443.588723	4080.232667	517.669922	48.986485
-7443.588723	4080.232667	516.419922	180.008698
-7443.588723	4080.232667	515.169922	174.938858
-7443.588723	4080.232667	513.919922	187.399292
-7443.588723	4080.232667	512.668945	180.093933
-7443.588723	4080.232667	511.417969	85.084038
-7443.588723	4080.232667	510.166992	156.691208
-7443.588723	4080.232667	508.916016	226.071060
-7443.588723	4080.232667	507.664063	12.775225
-7443.588723	4080.232667	506.412109	66.811348
-7443.588723	4080.232667	505.160156	-80.653214
-7443.588723	4080.232667	503.907227	21.553375
-7443.588723	4080.232667	502.655273	40.550476
-7443.588723	4080.232667	501.402344	182.107208
-7443.588723	4080.232667	500.148438	177.006241
-7443.588723	4080.232667	498.895508	163.186172
-7443.588723	4080.232667	497.641602	188.757065
-7443.588723	4080.232667	496.387695	-41.503021
-7443.588723	4080.232667	495.132813	145.932404
-7443.588723	4080.232667	493.878906	-64.481659
-7443.588723	4080.232667	492.624023	136.062271
-7443.588723	4080.232667	491.368164	85.294128
-7443.588723	4080.232667	490.113281	172.216507
-7443.588723	4080.232667	488.857422	160.864594
-7443.588723	4080.232667	487.601563	151.751495
-7443.588723	4080.232667	486.344727	109.942932
-7443.588723	4080.232667	485.088867	-12.534556
-7443.588723	4080.232667	483.832031	164.029282
-7443.588723	4080.232667	482.575195	-252.801971
-7443.588723	4080.232667	481.317383	-39.062164
-7443.588723	4080.232667	480.059570	-4.156642
-7443.588723	4080.232667	478.801758	-12.795362
-7443.588723	4080.232667	477.543945	-12.637555
-7443.588723	4080.232667	476.285156	105.267365
-7443.588723	4080.232667	475.027344	99.023773
-7443.588723	4080.232667	473.767578	20.967117
-7443.588723	4080.232667	472.508789	75.883499
-7443.588723	4080.232667	471.249023	-104.292519
-7443.588723	4080.232667	469.989258	-25.254395
-7443.588723	4080.232667	468.729492	-155.088593
-7443.588723	4080.232667	467.469727	-117.225395
-7443.588723	4080.232667	466.208984	70.818970
-7443.588723	4080.232667	464.948242	-21.688667
-7443.588723	4080.232667	463.686523	-35.778202
-7443.588723	4080.232667	462.425781	-106.274376
-7443.588723	4080.232667	461.164063	90.709091
-7443.588723	4080.232667	459.901367	211.649750
-7443.588723	4080.232667	458.639648	-62.760418
-7443.588723	4080.232667	457.376953	17.114050
-7443.588723	4080.232667	456.114258	-28.891106
-7443.588723	4080.232667	454.851563	-26.993441
-7443.588723	4080.232667	453.587891	-90.109840
-7443.588723	4080.232667	452.324219	-5.503910
-7443.588723	4080.232667	451.060547	111.731354
-7443.588723	4080.232667	449.796875	-154.938629
-7443.588723	4080.232667	448.532227	49.264332
-7443.588723	4080.232667	447.267578	-6.709573
-7443.588723	4080.232667	446.002930	-53.868084
-7443.588723	4080.232667	444.737305	50.830383
-7443.588723	4080.232667	443.471680	19.082264
-7443.588723	4080.232667	442.206055	6.965158
-7443.588723	4080.232667	440.940430	64.284973
-7443.588723	4080.232667	439.673828	0.419764
-7443.588723	4080.232667	438.407227	40.624302
-7443.588723	4080.232667	437.140625	28.974333
-7443.588723	4080.232667	435.873047	-34.502121
-7443.588723	4080.232667	434.605469	-182.224152
-7443.588723	4080.232667	433.337891	50.959435
-7443.588723	4080.232667	432.070313	-204.639343
-7443.588723	4080.232667	430.801758	-124.869133
-7443.588723	4080.232667	429.533203	-16.927788
-7443.588723	4080.232667	428.264648	37.031040
-7443.588723	4080.232667	426.996094	41.362190
-7443.588723	4080.232667	425.726563	93.306961
-7443.588723	4080.232667	424.457031	-87.960030
-7443.588723	4080.232667	423.186523	-53.119869
-7443.588723	4080.232667	421.916992	12.014677
-7443.588723	4080.232667	420.646484	-30.738911
-7443.588723	4080.232667	419.375977	21.550154
-7443.588723	4080.232667	418.104492	-38.322876
-7443.588723	4080.232667	416.833008	44.257458
-7443.588723	4080.232667	415.561523	94.501251
-7443.588723	4080.232667	414.290039	125.359421
-7443.588723	4080.232667	413.017578	-37.785358
-7443.588723	4080.232667	411.746094	-32.714512
-7443.588723	4080.232667	410.472656	41.317200
-7443.588723	4080.232667	409.200195	-22.548344
-7443.588723	4080.232667	407.926758	34.227592
-7443.588723	4080.232667	406.653320	60.821213
-7443.588723	4080.232667	405.379883	24.947884
-7443.588723	4080.232667	404.105469	-43.232670
-7443.588723	4080.232667	402.831055	-102.817215
-7443.588723	4080.232667	401.556641	57.028206
-7443.588723	4080.232667	400.282227	12.386021
-7443.588723	4080.232667	399.006836	103.167564
-7443.588723	4080.232667	397.731445	64.809189
-7443.588723	4080.232667	396.456055	241.329132
-7443.588723	4080.232667	395.179688	-44.434547
-7443.588723	4080.232667	393.903320	58.712666
-7443.588723	4080.232667	392.626953	69.286217
-7443.588723	4080.232667	391.350586	66.799965
-7443.588723	4080.232667	390.073242	79.154366
-7443.588723	4080.232667	388.795898	-1.015842
-7443.588723	4080.232667	387.518555	118.241615
-7443.588723	4080.232667	386.240234	205.011154
-7443.588723	4080.232667	384.961914	85.514694
-7443.588723	4080.232667	383.683594	118.083229
-7443.588723	4080.232667	382.405273	85.997185
-7443.588723	4080.232667	381.125977	162.939636
-7443.588723	4080.232667	379.846680	63.722092
-7443.588723	4080.232667	378.567383	-80.832466
-7443.588723	4080.232667	377.287109	-50.030563
-7443.588723	4080.232667	376.006836	205.266693
-7443.588723	4080.232667	374.726563	102.328972
-7443.588723	4080.232667	373.446289	-84.551437
-7443.588723	4080.232667	372.165039	222.661667
-7443.588723	4080.232667	370.883789	-1.602101
-7443.588723	4080.232667	369.602539	-18.766130
-7443.588723	4080.232667	368.320313	53.325687
-7443.588723	4080.232667	367.039063	-236.716965
-7443.588723	4080.232667	365.755859	62.904755
-7443.588723	4080.232667	364.473633	77.351837
-7443.588723	4080.232667	363.190430	18.370794
-7443.588723	4080.232667	361.907227	76.185181
-7443.588723	4080.232667	360.624023	-9.986127
-7443.588723	4080.232667	359.340820	-79.876480
-7443.588723	4080.232667	358.056641	116.325142
-7443.588723	4080.232667	356.772461	93.721001
-7443.588723	4080.232667	355.487305	112.836044
-7443.588723	4080.232667	354.202148	64.765594
-7443.588723	4080.232667	352.916992	-69.695488
-7443.588723	4080.232667	351.631836	31.601906
-7443.588723	4080.232667	350.346680	-105.047874
-7443.588723	4080.232667	349.060547	130.318909
-7443.588723	4080.232667	347.774414	59.459152
-7443.588723	4080.232667	346.487305	-21.218876
-7443.588723	4080.232667	345.200195	-13.714138
-7443.588723	4080.232667	343.913086	154.300903
-7443.588723	4080.232667	342.625977	197.230530
-7443.588723	4080.232667	341.338867	-76.568359
-7443.588723	4080.232667	340.050781	-45.253937
-7443.588723	4080.232667	338.762695	-39.011837
-7443.588723	4080.232667	337.473633	-2.584075
-7443.588723	4080.232667	336.184570	-65.820175
-7443.588723	4080.232667	334.895508	-130.864212
-7443.588723	4080.232667	333.606445	23.413513
-7443.588723	4080.232667	332.317383	5.543431
-7443.588723	4080.232667	331.027344	-139.826630
-7443.588723	4080.232667	329.736328	97.423233
-7443.588723	4080.232667	328.446289	9.420469
-7443.588723	4080.232667	327.155273	21.127707
-7443.588723	4080.232667	325.864258	-145.810822
-7443.588723	4080.232667	324.573242	169.085464
-7443.588723	4080.232667	323.281250	158.574738
-7443.588723	4080.232667	321.989258	88.165871
-7443.588723	4080.232667	320.697266	182.769135
-7443.588723	4080.232667	319.405273	140.898315
-7443.588723	4080.232667	318.112305	87.652786
-7443.588723	4080.232667	316.819336	239.326218
-7443.588723	4080.232667	315.526367	-12.856126
-7443.588723	4080.232667	314.232422	-60.375576
-7443.588723	4080.232667	312.938477	-7.259770
-7443.588723	4080.232667	311.644531	129.372025
-7443.588723	4080.232667	310.349609	-121.017876
-7443.588723	4080.232667	309.054688	27.580267
-7443.588723	4080.232667	307.759766	-22.362173
-7443.588723	4080.232667	306.464844	31.923656
-7443.588723	4080.232667	305.168945	175.355911
-7443.588723	4080.232667	303.873047	333.771393
-7443.588723	4080.232667	302.577148	346.244934
-7443.588723	4080.232667	301.281250	301.593964
-7443.588723	4080.232667	299.984375	136.193329
