#X		#Y		#Wave		#Intensity
-7362.265851	4177.690833	1999.946289	-121.948166
-7362.265851	4177.690833	1998.981445	70.250381
-7362.265851	4177.690833	1998.017578	-178.662857
-7362.265851	4177.690833	1997.052734	40.687672
-7362.265851	4177.690833	1996.088867	-42.502480
-7362.265851	4177.690833	1995.124023	-58.956406
-7362.265851	4177.690833	1994.159180	115.129654
-7362.265851	4177.690833	1993.193359	-57.695541
-7362.265851	4177.690833	1992.228516	-12.748180
-7362.265851	4177.690833	1991.262695	32.024162
-7362.265851	4177.690833	1990.296875	126.125694
-7362.265851	4177.690833	1989.331055	-158.544815
-7362.265851	4177.690833	1988.365234	-77.103355
-7362.265851	4177.690833	1987.398438	-117.032997
-7362.265851	4177.690833	1986.432617	20.980152
-7362.265851	4177.690833	1985.465820	240.408951
-7362.265851	4177.690833	1984.499023	14.646564
-7362.265851	4177.690833	1983.532227	36.017868
-7362.265851	4177.690833	1982.565430	220.366226
-7362.265851	4177.690833	1981.597656	290.880066
-7362.265851	4177.690833	1980.629883	292.092346
-7362.265851	4177.690833	1979.662109	1.759142
-7362.265851	4177.690833	1978.694336	79.375809
-7362.265851	4177.690833	1977.726563	26.015684
-7362.265851	4177.690833	1976.758789	96.008842
-7362.265851	4177.690833	1975.790039	-48.830429
-7362.265851	4177.690833	1974.821289	97.473198
-7362.265851	4177.690833	1973.852539	-20.336388
-7362.265851	4177.690833	1972.883789	17.219952
-7362.265851	4177.690833	1971.915039	42.359554
-7362.265851	4177.690833	1970.945313	193.170319
-7362.265851	4177.690833	1969.975586	-104.819717
-7362.265851	4177.690833	1969.005859	149.355560
-7362.265851	4177.690833	1968.036133	-3.241130
-7362.265851	4177.690833	1967.066406	226.065140
-7362.265851	4177.690833	1966.096680	85.717781
-7362.265851	4177.690833	1965.125977	179.352692
-7362.265851	4177.690833	1964.155273	-69.385971
-7362.265851	4177.690833	1963.184570	98.010399
-7362.265851	4177.690833	1962.213867	56.066940
-7362.265851	4177.690833	1961.242188	87.929832
-7362.265851	4177.690833	1960.271484	132.048782
-7362.265851	4177.690833	1959.299805	193.336441
-7362.265851	4177.690833	1958.328125	38.107658
-7362.265851	4177.690833	1957.356445	84.569839
-7362.265851	4177.690833	1956.384766	17.879536
-7362.265851	4177.690833	1955.412109	162.607147
-7362.265851	4177.690833	1954.439453	46.715820
-7362.265851	4177.690833	1953.467773	-56.865429
-7362.265851	4177.690833	1952.495117	163.898239
-7362.265851	4177.690833	1951.521484	55.376854
-7362.265851	4177.690833	1950.548828	138.460403
-7362.265851	4177.690833	1949.575195	-97.740364
-7362.265851	4177.690833	1948.601563	142.443497
-7362.265851	4177.690833	1947.627930	274.518555
-7362.265851	4177.690833	1946.654297	13.848737
-7362.265851	4177.690833	1945.680664	10.920005
-7362.265851	4177.690833	1944.706055	64.411316
-7362.265851	4177.690833	1943.732422	59.010242
-7362.265851	4177.690833	1942.757813	-149.949371
-7362.265851	4177.690833	1941.783203	50.652271
-7362.265851	4177.690833	1940.807617	-55.269753
-7362.265851	4177.690833	1939.833008	142.788330
-7362.265851	4177.690833	1938.857422	213.336914
-7362.265851	4177.690833	1937.881836	-24.859865
-7362.265851	4177.690833	1936.906250	26.103380
-7362.265851	4177.690833	1935.930664	-65.005699
-7362.265851	4177.690833	1934.955078	169.617615
-7362.265851	4177.690833	1933.978516	235.221115
-7362.265851	4177.690833	1933.001953	92.736610
-7362.265851	4177.690833	1932.025391	-44.792042
-7362.265851	4177.690833	1931.048828	-57.462666
-7362.265851	4177.690833	1930.072266	-23.634830
-7362.265851	4177.690833	1929.094727	73.786743
-7362.265851	4177.690833	1928.118164	83.144928
-7362.265851	4177.690833	1927.140625	-37.085373
-7362.265851	4177.690833	1926.163086	-52.134804
-7362.265851	4177.690833	1925.184570	45.267593
-7362.265851	4177.690833	1924.207031	-319.226990
-7362.265851	4177.690833	1923.228516	-65.408340
-7362.265851	4177.690833	1922.250000	-60.843239
-7362.265851	4177.690833	1921.271484	-90.458023
-7362.265851	4177.690833	1920.292969	-76.091179
-7362.265851	4177.690833	1919.314453	-64.154457
-7362.265851	4177.690833	1918.334961	-91.264725
-7362.265851	4177.690833	1917.355469	-101.264442
-7362.265851	4177.690833	1916.375977	-55.119160
-7362.265851	4177.690833	1915.396484	-16.292532
-7362.265851	4177.690833	1914.416992	0.583792
-7362.265851	4177.690833	1913.436523	-194.705750
-7362.265851	4177.690833	1912.457031	-68.041077
-7362.265851	4177.690833	1911.476563	73.218735
-7362.265851	4177.690833	1910.496094	-0.049380
-7362.265851	4177.690833	1909.515625	-65.960609
-7362.265851	4177.690833	1908.534180	7.048727
-7362.265851	4177.690833	1907.552734	-44.188522
-7362.265851	4177.690833	1906.572266	131.124237
-7362.265851	4177.690833	1905.590820	-83.235260
-7362.265851	4177.690833	1904.608398	84.746643
-7362.265851	4177.690833	1903.626953	9.262640
-7362.265851	4177.690833	1902.644531	14.137400
-7362.265851	4177.690833	1901.663086	116.364288
-7362.265851	4177.690833	1900.680664	-90.407784
-7362.265851	4177.690833	1899.698242	-68.437157
-7362.265851	4177.690833	1898.714844	-17.276384
-7362.265851	4177.690833	1897.732422	-36.629612
-7362.265851	4177.690833	1896.749023	-160.496307
-7362.265851	4177.690833	1895.765625	199.389465
-7362.265851	4177.690833	1894.782227	102.289116
-7362.265851	4177.690833	1893.798828	65.983574
-7362.265851	4177.690833	1892.814453	177.888031
-7362.265851	4177.690833	1891.831055	-174.128738
-7362.265851	4177.690833	1890.846680	78.651680
-7362.265851	4177.690833	1889.862305	-49.824337
-7362.265851	4177.690833	1888.877930	1.391048
-7362.265851	4177.690833	1887.892578	42.890755
-7362.265851	4177.690833	1886.908203	-80.611946
-7362.265851	4177.690833	1885.922852	-0.269661
-7362.265851	4177.690833	1884.937500	14.564025
-7362.265851	4177.690833	1883.952148	-6.973673
-7362.265851	4177.690833	1882.965820	-57.590614
-7362.265851	4177.690833	1881.980469	56.673336
-7362.265851	4177.690833	1880.994141	-178.122452
-7362.265851	4177.690833	1880.007813	35.495461
-7362.265851	4177.690833	1879.021484	-293.682465
-7362.265851	4177.690833	1878.035156	50.706535
-7362.265851	4177.690833	1877.047852	-43.404816
-7362.265851	4177.690833	1876.061523	92.573311
-7362.265851	4177.690833	1875.074219	233.347824
-7362.265851	4177.690833	1874.086914	129.594162
-7362.265851	4177.690833	1873.098633	79.125961
-7362.265851	4177.690833	1872.111328	-169.730743
-7362.265851	4177.690833	1871.123047	-103.989746
-7362.265851	4177.690833	1870.135742	-144.694168
-7362.265851	4177.690833	1869.147461	5.667617
-7362.265851	4177.690833	1868.158203	-194.620850
-7362.265851	4177.690833	1867.169922	-34.632050
-7362.265851	4177.690833	1866.180664	40.701309
-7362.265851	4177.690833	1865.192383	65.262772
-7362.265851	4177.690833	1864.203125	-180.786621
-7362.265851	4177.690833	1863.213867	119.184509
-7362.265851	4177.690833	1862.223633	-90.559097
-7362.265851	4177.690833	1861.234375	119.935432
-7362.265851	4177.690833	1860.244141	-77.663086
-7362.265851	4177.690833	1859.253906	-2.431283
-7362.265851	4177.690833	1858.263672	96.902603
-7362.265851	4177.690833	1857.273438	-61.985355
-7362.265851	4177.690833	1856.282227	-184.635132
-7362.265851	4177.690833	1855.291992	110.032120
-7362.265851	4177.690833	1854.300781	11.499640
-7362.265851	4177.690833	1853.309570	144.460297
-7362.265851	4177.690833	1852.317383	89.332123
-7362.265851	4177.690833	1851.326172	137.855103
-7362.265851	4177.690833	1850.333984	142.972382
-7362.265851	4177.690833	1849.342773	5.933784
-7362.265851	4177.690833	1848.350586	104.997841
-7362.265851	4177.690833	1847.357422	-12.742417
-7362.265851	4177.690833	1846.365234	-7.645538
-7362.265851	4177.690833	1845.372070	50.398529
-7362.265851	4177.690833	1844.379883	-52.860306
-7362.265851	4177.690833	1843.386719	94.186005
-7362.265851	4177.690833	1842.393555	39.047810
-7362.265851	4177.690833	1841.399414	41.647892
-7362.265851	4177.690833	1840.406250	135.630798
-7362.265851	4177.690833	1839.412109	10.726534
-7362.265851	4177.690833	1838.417969	119.067604
-7362.265851	4177.690833	1837.423828	-169.284195
-7362.265851	4177.690833	1836.429688	-48.971127
-7362.265851	4177.690833	1835.434570	92.900192
-7362.265851	4177.690833	1834.440430	-22.365326
-7362.265851	4177.690833	1833.445313	40.138916
-7362.265851	4177.690833	1832.450195	119.408798
-7362.265851	4177.690833	1831.454102	172.210709
-7362.265851	4177.690833	1830.458984	119.341904
-7362.265851	4177.690833	1829.462891	37.663918
-7362.265851	4177.690833	1828.466797	102.377808
-7362.265851	4177.690833	1827.470703	11.086452
-7362.265851	4177.690833	1826.474609	-46.613140
-7362.265851	4177.690833	1825.478516	212.273514
-7362.265851	4177.690833	1824.481445	41.796829
-7362.265851	4177.690833	1823.484375	-111.861511
-7362.265851	4177.690833	1822.487305	86.877945
-7362.265851	4177.690833	1821.490234	108.163025
-7362.265851	4177.690833	1820.493164	-67.073288
-7362.265851	4177.690833	1819.495117	42.810146
-7362.265851	4177.690833	1818.498047	49.628838
-7362.265851	4177.690833	1817.500000	104.306274
-7362.265851	4177.690833	1816.500977	137.377899
-7362.265851	4177.690833	1815.502930	177.589142
-7362.265851	4177.690833	1814.504883	71.751984
-7362.265851	4177.690833	1813.505859	59.243755
-7362.265851	4177.690833	1812.506836	49.097092
-7362.265851	4177.690833	1811.507813	-147.662186
-7362.265851	4177.690833	1810.508789	64.585495
-7362.265851	4177.690833	1809.508789	209.759354
-7362.265851	4177.690833	1808.508789	-56.362705
-7362.265851	4177.690833	1807.508789	143.681702
-7362.265851	4177.690833	1806.508789	219.341263
-7362.265851	4177.690833	1805.508789	173.075470
-7362.265851	4177.690833	1804.508789	-23.714819
-7362.265851	4177.690833	1803.507813	180.790802
-7362.265851	4177.690833	1802.506836	7.870521
-7362.265851	4177.690833	1801.505859	-16.994699
-7362.265851	4177.690833	1800.504883	22.558947
-7362.265851	4177.690833	1799.502930	219.573425
-7362.265851	4177.690833	1798.501953	225.577682
-7362.265851	4177.690833	1797.500000	312.649261
-7362.265851	4177.690833	1796.498047	201.663254
-7362.265851	4177.690833	1795.496094	85.907372
-7362.265851	4177.690833	1794.493164	122.748604
-7362.265851	4177.690833	1793.491211	59.409698
-7362.265851	4177.690833	1792.488281	86.619194
-7362.265851	4177.690833	1791.485352	-36.358852
-7362.265851	4177.690833	1790.482422	52.714439
-7362.265851	4177.690833	1789.478516	51.183456
-7362.265851	4177.690833	1788.475586	104.389572
-7362.265851	4177.690833	1787.471680	-35.356033
-7362.265851	4177.690833	1786.467773	212.973633
-7362.265851	4177.690833	1785.463867	11.275710
-7362.265851	4177.690833	1784.459961	83.295013
-7362.265851	4177.690833	1783.455078	33.883530
-7362.265851	4177.690833	1782.450195	-34.589729
-7362.265851	4177.690833	1781.445313	-7.945356
-7362.265851	4177.690833	1780.440430	66.202118
-7362.265851	4177.690833	1779.435547	-7.140722
-7362.265851	4177.690833	1778.429688	161.962891
-7362.265851	4177.690833	1777.424805	159.830994
-7362.265851	4177.690833	1776.418945	155.270004
-7362.265851	4177.690833	1775.413086	138.780167
-7362.265851	4177.690833	1774.406250	241.010971
-7362.265851	4177.690833	1773.400391	-20.208332
-7362.265851	4177.690833	1772.393555	13.052304
-7362.265851	4177.690833	1771.386719	-160.292557
-7362.265851	4177.690833	1770.379883	93.620171
-7362.265851	4177.690833	1769.373047	176.520828
-7362.265851	4177.690833	1768.365234	183.406342
-7362.265851	4177.690833	1767.358398	166.520630
-7362.265851	4177.690833	1766.350586	-146.888397
-7362.265851	4177.690833	1765.342773	-19.164625
-7362.265851	4177.690833	1764.334961	-19.568913
-7362.265851	4177.690833	1763.326172	112.712883
-7362.265851	4177.690833	1762.318359	-6.320890
-7362.265851	4177.690833	1761.309570	158.974716
-7362.265851	4177.690833	1760.300781	54.081287
-7362.265851	4177.690833	1759.291016	271.300110
-7362.265851	4177.690833	1758.282227	166.318466
-7362.265851	4177.690833	1757.272461	-147.041336
-7362.265851	4177.690833	1756.262695	20.219141
-7362.265851	4177.690833	1755.252930	246.533478
-7362.265851	4177.690833	1754.243164	27.830362
-7362.265851	4177.690833	1753.233398	-46.522018
-7362.265851	4177.690833	1752.222656	-28.651358
-7362.265851	4177.690833	1751.211914	-93.617523
-7362.265851	4177.690833	1750.201172	-281.568939
-7362.265851	4177.690833	1749.190430	90.791359
-7362.265851	4177.690833	1748.179688	-49.958485
-7362.265851	4177.690833	1747.167969	-77.279358
-7362.265851	4177.690833	1746.156250	-227.508163
-7362.265851	4177.690833	1745.144531	-28.109680
-7362.265851	4177.690833	1744.132813	-121.712708
-7362.265851	4177.690833	1743.121094	25.530516
-7362.265851	4177.690833	1742.108398	-9.135047
-7362.265851	4177.690833	1741.095703	83.625862
-7362.265851	4177.690833	1740.083008	-24.305775
-7362.265851	4177.690833	1739.070313	-68.540154
-7362.265851	4177.690833	1738.057617	49.970718
-7362.265851	4177.690833	1737.043945	175.454056
-7362.265851	4177.690833	1736.030273	-19.887434
-7362.265851	4177.690833	1735.016602	-146.829926
-7362.265851	4177.690833	1734.002930	-252.559738
-7362.265851	4177.690833	1732.989258	-207.459503
-7362.265851	4177.690833	1731.974609	-61.107861
-7362.265851	4177.690833	1730.959961	162.884720
-7362.265851	4177.690833	1729.945313	12.205962
-7362.265851	4177.690833	1728.930664	75.848297
-7362.265851	4177.690833	1727.916016	-178.463409
-7362.265851	4177.690833	1726.900391	-84.313881
-7362.265851	4177.690833	1725.885742	115.675041
-7362.265851	4177.690833	1724.870117	-112.771797
-7362.265851	4177.690833	1723.853516	-115.314400
-7362.265851	4177.690833	1722.837891	-12.041145
-7362.265851	4177.690833	1721.822266	1.768898
-7362.265851	4177.690833	1720.805664	-45.622501
-7362.265851	4177.690833	1719.789063	5.699203
-7362.265851	4177.690833	1718.772461	-185.160187
-7362.265851	4177.690833	1717.754883	-18.778858
-7362.265851	4177.690833	1716.738281	-66.324669
-7362.265851	4177.690833	1715.720703	224.384521
-7362.265851	4177.690833	1714.703125	82.753777
-7362.265851	4177.690833	1713.685547	-138.713623
-7362.265851	4177.690833	1712.667969	-3.262417
-7362.265851	4177.690833	1711.649414	-58.059845
-7362.265851	4177.690833	1710.630859	2.119650
-7362.265851	4177.690833	1709.612305	-252.207901
-7362.265851	4177.690833	1708.593750	209.078018
-7362.265851	4177.690833	1707.575195	-108.615913
-7362.265851	4177.690833	1706.555664	-156.541092
-7362.265851	4177.690833	1705.536133	147.220657
-7362.265851	4177.690833	1704.516602	80.420761
-7362.265851	4177.690833	1703.497070	20.634861
-7362.265851	4177.690833	1702.477539	92.059700
-7362.265851	4177.690833	1701.457031	43.915417
-7362.265851	4177.690833	1700.437500	-32.355072
-7362.265851	4177.690833	1699.416992	-103.962372
-7362.265851	4177.690833	1698.395508	245.898590
-7362.265851	4177.690833	1697.375000	122.677788
-7362.265851	4177.690833	1696.354492	114.158813
-7362.265851	4177.690833	1695.333008	196.864365
-7362.265851	4177.690833	1694.311523	-43.394302
-7362.265851	4177.690833	1693.290039	18.177267
-7362.265851	4177.690833	1692.267578	39.917126
-7362.265851	4177.690833	1691.246094	-85.704750
-7362.265851	4177.690833	1690.223633	52.870987
-7362.265851	4177.690833	1689.201172	217.070053
-7362.265851	4177.690833	1688.178711	121.749428
-7362.265851	4177.690833	1687.155273	327.850586
-7362.265851	4177.690833	1686.132813	146.034225
-7362.265851	4177.690833	1685.109375	53.003994
-7362.265851	4177.690833	1684.085938	-47.032005
-7362.265851	4177.690833	1683.062500	175.148483
-7362.265851	4177.690833	1682.039063	243.138840
-7362.265851	4177.690833	1681.014648	-41.366730
-7362.265851	4177.690833	1679.990234	89.570526
-7362.265851	4177.690833	1678.965820	208.760773
-7362.265851	4177.690833	1677.941406	94.611839
-7362.265851	4177.690833	1676.916992	129.735672
-7362.265851	4177.690833	1675.891602	66.874245
-7362.265851	4177.690833	1674.866211	62.290684
-7362.265851	4177.690833	1673.840820	316.400635
-7362.265851	4177.690833	1672.815430	176.552414
-7362.265851	4177.690833	1671.790039	101.968315
-7362.265851	4177.690833	1670.763672	80.955666
-7362.265851	4177.690833	1669.737305	269.536499
-7362.265851	4177.690833	1668.710938	132.019119
-7362.265851	4177.690833	1667.684570	236.654144
-7362.265851	4177.690833	1666.658203	355.191254
-7362.265851	4177.690833	1665.630859	50.094940
-7362.265851	4177.690833	1664.603516	319.807281
-7362.265851	4177.690833	1663.576172	380.023315
-7362.265851	4177.690833	1662.548828	98.290527
-7362.265851	4177.690833	1661.520508	191.030426
-7362.265851	4177.690833	1660.493164	11.700930
-7362.265851	4177.690833	1659.464844	283.370819
-7362.265851	4177.690833	1658.436523	-40.047932
-7362.265851	4177.690833	1657.408203	261.697296
-7362.265851	4177.690833	1656.378906	182.296448
-7362.265851	4177.690833	1655.350586	205.119751
-7362.265851	4177.690833	1654.321289	392.790558
-7362.265851	4177.690833	1653.291992	136.902527
-7362.265851	4177.690833	1652.261719	428.936615
-7362.265851	4177.690833	1651.232422	193.999435
-7362.265851	4177.690833	1650.202148	270.077576
-7362.265851	4177.690833	1649.171875	141.948334
-7362.265851	4177.690833	1648.141602	440.662231
-7362.265851	4177.690833	1647.111328	402.973907
-7362.265851	4177.690833	1646.080078	400.059601
-7362.265851	4177.690833	1645.049805	496.830688
-7362.265851	4177.690833	1644.018555	428.982697
-7362.265851	4177.690833	1642.987305	263.824219
-7362.265851	4177.690833	1641.955078	274.797119
-7362.265851	4177.690833	1640.923828	401.590210
-7362.265851	4177.690833	1639.891602	400.937988
-7362.265851	4177.690833	1638.859375	740.666687
-7362.265851	4177.690833	1637.827148	510.743866
-7362.265851	4177.690833	1636.794922	604.957336
-7362.265851	4177.690833	1635.761719	629.696228
-7362.265851	4177.690833	1634.729492	552.625916
-7362.265851	4177.690833	1633.696289	630.566895
-7362.265851	4177.690833	1632.662109	632.143005
-7362.265851	4177.690833	1631.628906	656.850586
-7362.265851	4177.690833	1630.594727	559.006226
-7362.265851	4177.690833	1629.561523	833.363220
-7362.265851	4177.690833	1628.527344	758.635620
-7362.265851	4177.690833	1627.493164	711.667297
-7362.265851	4177.690833	1626.458008	646.231079
-7362.265851	4177.690833	1625.423828	955.006042
-7362.265851	4177.690833	1624.388672	1166.667114
-7362.265851	4177.690833	1623.353516	1539.868896
-7362.265851	4177.690833	1622.318359	1695.945801
-7362.265851	4177.690833	1621.282227	1911.965942
-7362.265851	4177.690833	1620.247070	2007.929443
-7362.265851	4177.690833	1619.210938	2274.575928
-7362.265851	4177.690833	1618.174805	2139.783203
-7362.265851	4177.690833	1617.137695	2180.309814
-7362.265851	4177.690833	1616.101563	1819.652954
-7362.265851	4177.690833	1615.064453	1602.062988
-7362.265851	4177.690833	1614.027344	1370.741943
-7362.265851	4177.690833	1612.990234	1402.216919
-7362.265851	4177.690833	1611.953125	1373.792480
-7362.265851	4177.690833	1610.916016	939.989807
-7362.265851	4177.690833	1609.877930	934.716858
-7362.265851	4177.690833	1608.839844	904.134583
-7362.265851	4177.690833	1607.801758	915.018066
-7362.265851	4177.690833	1606.763672	958.138672
-7362.265851	4177.690833	1605.724609	936.817444
-7362.265851	4177.690833	1604.685547	722.263123
-7362.265851	4177.690833	1603.646484	972.469604
-7362.265851	4177.690833	1602.607422	1201.901489
-7362.265851	4177.690833	1601.568359	1102.451050
-7362.265851	4177.690833	1600.528320	1219.154297
-7362.265851	4177.690833	1599.489258	1181.843872
-7362.265851	4177.690833	1598.449219	1004.382019
-7362.265851	4177.690833	1597.408203	863.766724
-7362.265851	4177.690833	1596.368164	1058.623169
-7362.265851	4177.690833	1595.327148	957.146912
-7362.265851	4177.690833	1594.287109	1140.480591
-7362.265851	4177.690833	1593.246094	1270.957764
-7362.265851	4177.690833	1592.204102	1454.196411
-7362.265851	4177.690833	1591.163086	1189.893555
-7362.265851	4177.690833	1590.121094	1139.100708
-7362.265851	4177.690833	1589.079102	1131.943115
-7362.265851	4177.690833	1588.037109	1331.239746
-7362.265851	4177.690833	1586.995117	1280.540161
-7362.265851	4177.690833	1585.953125	1158.820801
-7362.265851	4177.690833	1584.910156	1374.129639
-7362.265851	4177.690833	1583.867188	1165.410278
-7362.265851	4177.690833	1582.824219	1158.443726
-7362.265851	4177.690833	1581.781250	1380.601563
-7362.265851	4177.690833	1580.737305	972.833740
-7362.265851	4177.690833	1579.693359	872.119507
-7362.265851	4177.690833	1578.649414	1016.460571
-7362.265851	4177.690833	1577.605469	588.513855
-7362.265851	4177.690833	1576.561523	742.085693
-7362.265851	4177.690833	1575.516602	543.248047
-7362.265851	4177.690833	1574.472656	813.522095
-7362.265851	4177.690833	1573.427734	710.894836
-7362.265851	4177.690833	1572.381836	743.265564
-7362.265851	4177.690833	1571.336914	908.283020
-7362.265851	4177.690833	1570.291016	904.112366
-7362.265851	4177.690833	1569.246094	867.996826
-7362.265851	4177.690833	1568.200195	548.587036
-7362.265851	4177.690833	1567.153320	501.206024
-7362.265851	4177.690833	1566.107422	657.185730
-7362.265851	4177.690833	1565.060547	687.539307
-7362.265851	4177.690833	1564.013672	603.765015
-7362.265851	4177.690833	1562.966797	458.435760
-7362.265851	4177.690833	1561.919922	573.398743
-7362.265851	4177.690833	1560.872070	775.071350
-7362.265851	4177.690833	1559.825195	331.069061
-7362.265851	4177.690833	1558.777344	494.031525
-7362.265851	4177.690833	1557.729492	602.246765
-7362.265851	4177.690833	1556.680664	601.018921
-7362.265851	4177.690833	1555.632813	175.832291
-7362.265851	4177.690833	1554.583984	259.123779
-7362.265851	4177.690833	1553.535156	435.864777
-7362.265851	4177.690833	1552.486328	222.997253
-7362.265851	4177.690833	1551.436523	110.486732
-7362.265851	4177.690833	1550.387695	164.334503
-7362.265851	4177.690833	1549.337891	468.676239
-7362.265851	4177.690833	1548.288086	162.846298
-7362.265851	4177.690833	1547.238281	214.536636
-7362.265851	4177.690833	1546.187500	336.801941
-7362.265851	4177.690833	1545.136719	158.752716
-7362.265851	4177.690833	1544.086914	12.683895
-7362.265851	4177.690833	1543.035156	21.371063
-7362.265851	4177.690833	1541.984375	389.386322
-7362.265851	4177.690833	1540.933594	120.767815
-7362.265851	4177.690833	1539.881836	331.899658
-7362.265851	4177.690833	1538.830078	281.672272
-7362.265851	4177.690833	1537.778320	176.997314
-7362.265851	4177.690833	1536.725586	354.097870
-7362.265851	4177.690833	1535.673828	274.557526
-7362.265851	4177.690833	1534.621094	290.474426
-7362.265851	4177.690833	1533.568359	54.451588
-7362.265851	4177.690833	1532.515625	215.800995
-7362.265851	4177.690833	1531.461914	431.610291
-7362.265851	4177.690833	1530.409180	234.464355
-7362.265851	4177.690833	1529.355469	239.348663
-7362.265851	4177.690833	1528.301758	201.204758
-7362.265851	4177.690833	1527.247070	165.404709
-7362.265851	4177.690833	1526.193359	315.594330
-7362.265851	4177.690833	1525.138672	341.121002
-7362.265851	4177.690833	1524.083984	-36.682514
-7362.265851	4177.690833	1523.029297	111.391266
-7362.265851	4177.690833	1521.974609	-32.751030
-7362.265851	4177.690833	1520.918945	-138.270157
-7362.265851	4177.690833	1519.863281	21.261154
-7362.265851	4177.690833	1518.807617	-25.224091
-7362.265851	4177.690833	1517.751953	34.766659
-7362.265851	4177.690833	1516.696289	-29.664679
-7362.265851	4177.690833	1515.639648	-78.165855
-7362.265851	4177.690833	1514.583008	120.002541
-7362.265851	4177.690833	1513.526367	-159.062469
-7362.265851	4177.690833	1512.469727	-87.444534
-7362.265851	4177.690833	1511.412109	-65.524559
-7362.265851	4177.690833	1510.355469	49.140968
-7362.265851	4177.690833	1509.297852	-55.384827
-7362.265851	4177.690833	1508.240234	-315.699890
-7362.265851	4177.690833	1507.181641	126.722321
-7362.265851	4177.690833	1506.124023	97.000549
-7362.265851	4177.690833	1505.065430	-147.162888
-7362.265851	4177.690833	1504.006836	-7.343786
-7362.265851	4177.690833	1502.948242	-208.350479
-7362.265851	4177.690833	1501.888672	-14.263465
-7362.265851	4177.690833	1500.830078	-269.189423
-7362.265851	4177.690833	1499.770508	-115.619644
-7362.265851	4177.690833	1498.710938	-212.391098
-7362.265851	4177.690833	1497.650391	74.303688
-7362.265851	4177.690833	1496.590820	79.143562
-7362.265851	4177.690833	1495.530273	-172.913986
-7362.265851	4177.690833	1494.469727	25.942211
-7362.265851	4177.690833	1493.409180	-137.972198
-7362.265851	4177.690833	1492.348633	69.967026
-7362.265851	4177.690833	1491.287109	-118.511383
-7362.265851	4177.690833	1490.225586	-110.921768
-7362.265851	4177.690833	1489.164063	-55.974873
-7362.265851	4177.690833	1488.102539	-91.010376
-7362.265851	4177.690833	1487.041016	-141.704849
-7362.265851	4177.690833	1485.978516	-3.294064
-7362.265851	4177.690833	1484.916016	96.909386
-7362.265851	4177.690833	1483.853516	-34.533802
-7362.265851	4177.690833	1482.791016	-51.145950
-7362.265851	4177.690833	1481.727539	42.494694
-7362.265851	4177.690833	1480.664063	26.051756
-7362.265851	4177.690833	1479.600586	250.145477
-7362.265851	4177.690833	1478.537109	96.773026
-7362.265851	4177.690833	1477.473633	123.272423
-7362.265851	4177.690833	1476.409180	199.190750
-7362.265851	4177.690833	1475.344727	212.338699
-7362.265851	4177.690833	1474.280273	290.634308
-7362.265851	4177.690833	1473.215820	272.539551
-7362.265851	4177.690833	1472.151367	240.941254
-7362.265851	4177.690833	1471.085938	301.571442
-7362.265851	4177.690833	1470.020508	281.548920
-7362.265851	4177.690833	1468.955078	326.471436
-7362.265851	4177.690833	1467.888672	86.945206
-7362.265851	4177.690833	1466.823242	112.199356
-7362.265851	4177.690833	1465.756836	119.291145
-7362.265851	4177.690833	1464.690430	381.698364
-7362.265851	4177.690833	1463.624023	223.371216
-7362.265851	4177.690833	1462.556641	145.852844
-7362.265851	4177.690833	1461.490234	305.244568
-7362.265851	4177.690833	1460.422852	248.628830
-7362.265851	4177.690833	1459.355469	390.108948
-7362.265851	4177.690833	1458.287109	441.344604
-7362.265851	4177.690833	1457.219727	623.540894
-7362.265851	4177.690833	1456.151367	327.972290
-7362.265851	4177.690833	1455.083008	461.365814
-7362.265851	4177.690833	1454.014648	509.748779
-7362.265851	4177.690833	1452.945313	534.956909
-7362.265851	4177.690833	1451.876953	374.523712
-7362.265851	4177.690833	1450.807617	484.212616
-7362.265851	4177.690833	1449.738281	468.583252
-7362.265851	4177.690833	1448.668945	358.025146
-7362.265851	4177.690833	1447.598633	384.964294
-7362.265851	4177.690833	1446.528320	661.051880
-7362.265851	4177.690833	1445.458008	512.956665
-7362.265851	4177.690833	1444.387695	673.083923
-7362.265851	4177.690833	1443.317383	709.972595
-7362.265851	4177.690833	1442.246094	699.929749
-7362.265851	4177.690833	1441.174805	603.421692
-7362.265851	4177.690833	1440.103516	478.229462
-7362.265851	4177.690833	1439.032227	601.703491
-7362.265851	4177.690833	1437.960938	439.454071
-7362.265851	4177.690833	1436.888672	746.990845
-7362.265851	4177.690833	1435.816406	402.766785
-7362.265851	4177.690833	1434.744141	576.432251
-7362.265851	4177.690833	1433.670898	476.400360
-7362.265851	4177.690833	1432.598633	537.335510
-7362.265851	4177.690833	1431.525391	363.499847
-7362.265851	4177.690833	1430.452148	331.728912
-7362.265851	4177.690833	1429.378906	183.598602
-7362.265851	4177.690833	1428.304688	515.214905
-7362.265851	4177.690833	1427.231445	251.744293
-7362.265851	4177.690833	1426.157227	309.308075
-7362.265851	4177.690833	1425.083008	193.217911
-7362.265851	4177.690833	1424.007813	140.363159
-7362.265851	4177.690833	1422.933594	94.056206
-7362.265851	4177.690833	1421.858398	240.675781
-7362.265851	4177.690833	1420.783203	34.807575
-7362.265851	4177.690833	1419.708008	65.831223
-7362.265851	4177.690833	1418.631836	86.756607
-7362.265851	4177.690833	1417.555664	166.589096
-7362.265851	4177.690833	1416.479492	146.107727
-7362.265851	4177.690833	1415.403320	-32.115509
-7362.265851	4177.690833	1414.327148	200.854660
-7362.265851	4177.690833	1413.250000	87.591911
-7362.265851	4177.690833	1412.173828	23.467619
-7362.265851	4177.690833	1411.096680	148.605103
-7362.265851	4177.690833	1410.018555	17.080425
-7362.265851	4177.690833	1408.941406	36.698120
-7362.265851	4177.690833	1407.863281	169.730331
-7362.265851	4177.690833	1406.785156	52.798862
-7362.265851	4177.690833	1405.707031	350.808655
-7362.265851	4177.690833	1404.628906	179.745682
-7362.265851	4177.690833	1403.549805	249.242844
-7362.265851	4177.690833	1402.470703	295.141357
-7362.265851	4177.690833	1401.391602	346.102966
-7362.265851	4177.690833	1400.312500	100.582375
-7362.265851	4177.690833	1399.233398	351.097839
-7362.265851	4177.690833	1398.153320	293.367462
-7362.265851	4177.690833	1397.073242	477.611023
-7362.265851	4177.690833	1395.993164	660.861328
-7362.265851	4177.690833	1394.913086	710.636536
-7362.265851	4177.690833	1393.832031	762.086731
-7362.265851	4177.690833	1392.750977	731.807312
-7362.265851	4177.690833	1391.669922	855.635803
-7362.265851	4177.690833	1390.588867	1019.875549
-7362.265851	4177.690833	1389.506836	1038.029297
-7362.265851	4177.690833	1388.425781	770.371521
-7362.265851	4177.690833	1387.343750	932.773621
-7362.265851	4177.690833	1386.261719	1181.750488
-7362.265851	4177.690833	1385.178711	993.968201
-7362.265851	4177.690833	1384.096680	1102.350220
-7362.265851	4177.690833	1383.013672	921.096436
-7362.265851	4177.690833	1381.930664	1024.875854
-7362.265851	4177.690833	1380.846680	869.698486
-7362.265851	4177.690833	1379.763672	1085.521484
-7362.265851	4177.690833	1378.679688	1013.699463
-7362.265851	4177.690833	1377.595703	1039.236084
-7362.265851	4177.690833	1376.511719	1105.254028
-7362.265851	4177.690833	1375.427734	1128.094604
-7362.265851	4177.690833	1374.342773	1053.212524
-7362.265851	4177.690833	1373.257813	936.296814
-7362.265851	4177.690833	1372.172852	834.387939
-7362.265851	4177.690833	1371.087891	954.657349
-7362.265851	4177.690833	1370.001953	1138.500610
-7362.265851	4177.690833	1368.916992	899.188660
-7362.265851	4177.690833	1367.831055	1081.186035
-7362.265851	4177.690833	1366.744141	1180.292114
-7362.265851	4177.690833	1365.658203	1148.077515
-7362.265851	4177.690833	1364.571289	1207.424927
-7362.265851	4177.690833	1363.484375	1040.960083
-7362.265851	4177.690833	1362.397461	1161.758789
-7362.265851	4177.690833	1361.310547	1333.233521
-7362.265851	4177.690833	1360.222656	1312.378906
-7362.265851	4177.690833	1359.135742	917.362549
-7362.265851	4177.690833	1358.047852	1373.593994
-7362.265851	4177.690833	1356.958984	1009.833801
-7362.265851	4177.690833	1355.871094	1100.413086
-7362.265851	4177.690833	1354.782227	1003.915710
-7362.265851	4177.690833	1353.693359	819.391785
-7362.265851	4177.690833	1352.604492	689.913086
-7362.265851	4177.690833	1351.515625	820.933105
-7362.265851	4177.690833	1350.425781	763.175476
-7362.265851	4177.690833	1349.335938	628.408752
-7362.265851	4177.690833	1348.246094	833.629578
-7362.265851	4177.690833	1347.156250	772.908630
-7362.265851	4177.690833	1346.066406	671.608704
-7362.265851	4177.690833	1344.975586	600.265991
-7362.265851	4177.690833	1343.884766	468.285706
-7362.265851	4177.690833	1342.793945	467.688690
-7362.265851	4177.690833	1341.702148	570.275085
-7362.265851	4177.690833	1340.611328	583.766296
-7362.265851	4177.690833	1339.519531	601.607849
-7362.265851	4177.690833	1338.427734	611.249573
-7362.265851	4177.690833	1337.334961	299.309052
-7362.265851	4177.690833	1336.243164	357.813995
-7362.265851	4177.690833	1335.150391	484.861664
-7362.265851	4177.690833	1334.057617	307.023682
-7362.265851	4177.690833	1332.964844	526.532898
-7362.265851	4177.690833	1331.871094	516.212280
-7362.265851	4177.690833	1330.778320	475.799957
-7362.265851	4177.690833	1329.684570	393.111389
-7362.265851	4177.690833	1328.590820	237.434814
-7362.265851	4177.690833	1327.496094	383.003479
-7362.265851	4177.690833	1326.402344	234.106003
-7362.265851	4177.690833	1325.307617	213.737854
-7362.265851	4177.690833	1324.212891	231.149963
-7362.265851	4177.690833	1323.117188	450.369690
-7362.265851	4177.690833	1322.022461	443.778107
-7362.265851	4177.690833	1320.926758	168.302612
-7362.265851	4177.690833	1319.831055	54.272110
-7362.265851	4177.690833	1318.735352	198.806137
-7362.265851	4177.690833	1317.638672	51.793556
-7362.265851	4177.690833	1316.542969	99.850426
-7362.265851	4177.690833	1315.446289	336.579315
-7362.265851	4177.690833	1314.349609	134.794266
-7362.265851	4177.690833	1313.251953	170.148941
-7362.265851	4177.690833	1312.155273	301.524750
-7362.265851	4177.690833	1311.057617	312.215912
-7362.265851	4177.690833	1309.959961	163.933838
-7362.265851	4177.690833	1308.862305	274.374207
-7362.265851	4177.690833	1307.763672	379.523834
-7362.265851	4177.690833	1306.665039	391.617462
-7362.265851	4177.690833	1305.566406	473.057800
-7362.265851	4177.690833	1304.467773	482.507324
-7362.265851	4177.690833	1303.369141	480.286774
-7362.265851	4177.690833	1302.269531	339.305939
-7362.265851	4177.690833	1301.169922	473.762268
-7362.265851	4177.690833	1300.070313	580.007751
-7362.265851	4177.690833	1298.970703	757.383484
-7362.265851	4177.690833	1297.870117	744.207764
-7362.265851	4177.690833	1296.769531	1049.775391
-7362.265851	4177.690833	1295.668945	856.172913
-7362.265851	4177.690833	1294.568359	849.081177
-7362.265851	4177.690833	1293.466797	874.775574
-7362.265851	4177.690833	1292.366211	789.060181
-7362.265851	4177.690833	1291.264648	819.849487
-7362.265851	4177.690833	1290.162109	917.661560
-7362.265851	4177.690833	1289.060547	729.804260
-7362.265851	4177.690833	1287.958008	916.579834
-7362.265851	4177.690833	1286.855469	675.333923
-7362.265851	4177.690833	1285.752930	483.814941
-7362.265851	4177.690833	1284.650391	377.525208
-7362.265851	4177.690833	1283.546875	482.290955
-7362.265851	4177.690833	1282.444336	445.186523
-7362.265851	4177.690833	1281.339844	254.967224
-7362.265851	4177.690833	1280.236328	212.712509
-7362.265851	4177.690833	1279.132813	313.460541
-7362.265851	4177.690833	1278.028320	163.802338
-7362.265851	4177.690833	1276.923828	148.625229
-7362.265851	4177.690833	1275.819336	189.267563
-7362.265851	4177.690833	1274.713867	149.438507
-7362.265851	4177.690833	1273.608398	80.900398
-7362.265851	4177.690833	1272.503906	20.253437
-7362.265851	4177.690833	1271.397461	146.646942
-7362.265851	4177.690833	1270.291992	30.006617
-7362.265851	4177.690833	1269.185547	260.255432
-7362.265851	4177.690833	1268.080078	-70.858856
-7362.265851	4177.690833	1266.972656	-35.079342
-7362.265851	4177.690833	1265.866211	-222.358398
-7362.265851	4177.690833	1264.759766	-99.918388
-7362.265851	4177.690833	1263.652344	-130.552887
-7362.265851	4177.690833	1262.544922	-41.444004
-7362.265851	4177.690833	1261.436523	29.033632
-7362.265851	4177.690833	1260.329102	6.268239
-7362.265851	4177.690833	1259.220703	13.058995
-7362.265851	4177.690833	1258.112305	60.114384
-7362.265851	4177.690833	1257.003906	-81.355209
-7362.265851	4177.690833	1255.895508	-13.207746
-7362.265851	4177.690833	1254.786133	-161.835358
-7362.265851	4177.690833	1253.676758	-11.480771
-7362.265851	4177.690833	1252.567383	-12.690413
-7362.265851	4177.690833	1251.458008	-28.891577
-7362.265851	4177.690833	1250.347656	38.006054
-7362.265851	4177.690833	1249.237305	0.659164
-7362.265851	4177.690833	1248.126953	-41.420082
-7362.265851	4177.690833	1247.016602	66.731659
-7362.265851	4177.690833	1245.905273	1.569974
-7362.265851	4177.690833	1244.793945	56.491760
-7362.265851	4177.690833	1243.682617	114.794357
-7362.265851	4177.690833	1242.571289	55.785847
-7362.265851	4177.690833	1241.459961	118.965721
-7362.265851	4177.690833	1240.347656	-43.658665
-7362.265851	4177.690833	1239.235352	-102.418915
-7362.265851	4177.690833	1238.123047	-92.463966
-7362.265851	4177.690833	1237.009766	-124.305984
-7362.265851	4177.690833	1235.897461	-113.052986
-7362.265851	4177.690833	1234.784180	-133.302048
-7362.265851	4177.690833	1233.670898	14.266614
-7362.265851	4177.690833	1232.556641	-119.473419
-7362.265851	4177.690833	1231.443359	1.132542
-7362.265851	4177.690833	1230.329102	12.354628
-7362.265851	4177.690833	1229.214844	118.554619
-7362.265851	4177.690833	1228.099609	50.013329
-7362.265851	4177.690833	1226.985352	65.015366
-7362.265851	4177.690833	1225.870117	-30.674032
-7362.265851	4177.690833	1224.754883	-253.920609
-7362.265851	4177.690833	1223.639648	-148.648636
-7362.265851	4177.690833	1222.523438	-55.587078
-7362.265851	4177.690833	1221.408203	-14.082119
-7362.265851	4177.690833	1220.291992	-29.192781
-7362.265851	4177.690833	1219.174805	-33.986912
-7362.265851	4177.690833	1218.058594	74.320221
-7362.265851	4177.690833	1216.941406	122.699829
-7362.265851	4177.690833	1215.824219	125.851692
-7362.265851	4177.690833	1214.707031	131.330063
-7362.265851	4177.690833	1213.589844	171.322998
-7362.265851	4177.690833	1212.471680	247.155212
-7362.265851	4177.690833	1211.353516	249.967941
-7362.265851	4177.690833	1210.235352	213.551758
-7362.265851	4177.690833	1209.117188	146.542038
-7362.265851	4177.690833	1207.998047	-11.164296
-7362.265851	4177.690833	1206.878906	249.044754
-7362.265851	4177.690833	1205.759766	-204.601715
-7362.265851	4177.690833	1204.640625	-202.590439
-7362.265851	4177.690833	1203.520508	-73.077209
-7362.265851	4177.690833	1202.401367	-66.834602
-7362.265851	4177.690833	1201.281250	-28.091806
-7362.265851	4177.690833	1200.160156	-27.780884
-7362.265851	4177.690833	1199.040039	-233.209473
-7362.265851	4177.690833	1197.918945	-202.217178
-7362.265851	4177.690833	1196.797852	-150.728989
-7362.265851	4177.690833	1195.676758	-24.849768
-7362.265851	4177.690833	1194.555664	-102.585716
-7362.265851	4177.690833	1193.433594	63.798870
-7362.265851	4177.690833	1192.311523	52.392754
-7362.265851	4177.690833	1191.189453	-80.802460
-7362.265851	4177.690833	1190.066406	153.341492
-7362.265851	4177.690833	1188.944336	38.821945
-7362.265851	4177.690833	1187.821289	-25.896238
-7362.265851	4177.690833	1186.698242	224.773834
-7362.265851	4177.690833	1185.574219	250.652756
-7362.265851	4177.690833	1184.451172	189.492920
-7362.265851	4177.690833	1183.327148	291.906494
-7362.265851	4177.690833	1182.203125	213.881836
-7362.265851	4177.690833	1181.078125	384.839111
-7362.265851	4177.690833	1179.954102	393.381439
-7362.265851	4177.690833	1178.829102	260.156036
-7362.265851	4177.690833	1177.704102	448.616180
-7362.265851	4177.690833	1176.579102	568.957886
-7362.265851	4177.690833	1175.453125	731.045593
-7362.265851	4177.690833	1174.327148	672.676331
-7362.265851	4177.690833	1173.201172	537.243469
-7362.265851	4177.690833	1172.075195	404.465424
-7362.265851	4177.690833	1170.949219	310.374207
-7362.265851	4177.690833	1169.822266	344.854645
-7362.265851	4177.690833	1168.695313	251.419785
-7362.265851	4177.690833	1167.568359	144.292023
-7362.265851	4177.690833	1166.440430	84.911827
-7362.265851	4177.690833	1165.313477	32.628986
-7362.265851	4177.690833	1164.185547	12.669366
-7362.265851	4177.690833	1163.057617	-65.002686
-7362.265851	4177.690833	1161.928711	46.019032
-7362.265851	4177.690833	1160.800781	-47.219204
-7362.265851	4177.690833	1159.671875	9.487807
-7362.265851	4177.690833	1158.541992	-17.225441
-7362.265851	4177.690833	1157.413086	-8.417033
-7362.265851	4177.690833	1156.283203	36.528278
-7362.265851	4177.690833	1155.154297	-119.069557
-7362.265851	4177.690833	1154.023438	-59.509418
-7362.265851	4177.690833	1152.893555	39.014030
-7362.265851	4177.690833	1151.763672	84.486008
-7362.265851	4177.690833	1150.632813	-75.041954
-7362.265851	4177.690833	1149.501953	-98.138390
-7362.265851	4177.690833	1148.370117	-100.081886
-7362.265851	4177.690833	1147.239258	32.710571
-7362.265851	4177.690833	1146.107422	53.657555
-7362.265851	4177.690833	1144.975586	8.099819
-7362.265851	4177.690833	1143.843750	-225.583878
-7362.265851	4177.690833	1142.710938	51.563141
-7362.265851	4177.690833	1141.578125	-169.324341
-7362.265851	4177.690833	1140.445313	-166.753311
-7362.265851	4177.690833	1139.312500	-123.883049
-7362.265851	4177.690833	1138.178711	-179.732574
-7362.265851	4177.690833	1137.045898	86.347046
-7362.265851	4177.690833	1135.912109	-150.420364
-7362.265851	4177.690833	1134.777344	-149.671722
-7362.265851	4177.690833	1133.643555	44.520405
-7362.265851	4177.690833	1132.508789	128.313293
-7362.265851	4177.690833	1131.374023	99.526558
-7362.265851	4177.690833	1130.239258	152.190399
-7362.265851	4177.690833	1129.104492	277.267609
-7362.265851	4177.690833	1127.968750	159.725296
-7362.265851	4177.690833	1126.833008	174.455521
-7362.265851	4177.690833	1125.697266	97.649590
-7362.265851	4177.690833	1124.560547	11.998214
-7362.265851	4177.690833	1123.424805	41.681252
-7362.265851	4177.690833	1122.288086	81.940536
-7362.265851	4177.690833	1121.151367	37.344982
-7362.265851	4177.690833	1120.013672	134.876236
-7362.265851	4177.690833	1118.876953	97.829613
-7362.265851	4177.690833	1117.739258	88.133270
-7362.265851	4177.690833	1116.601563	101.232231
-7362.265851	4177.690833	1115.462891	169.195938
-7362.265851	4177.690833	1114.324219	-138.499283
-7362.265851	4177.690833	1113.186523	-163.239288
-7362.265851	4177.690833	1112.046875	21.269121
-7362.265851	4177.690833	1110.908203	-63.747772
-7362.265851	4177.690833	1109.769531	-7.370956
-7362.265851	4177.690833	1108.629883	60.999149
-7362.265851	4177.690833	1107.490234	-84.779106
-7362.265851	4177.690833	1106.349609	83.035416
-7362.265851	4177.690833	1105.209961	-21.696833
-7362.265851	4177.690833	1104.069336	-94.637138
-7362.265851	4177.690833	1102.928711	-143.575470
-7362.265851	4177.690833	1101.787109	115.426491
-7362.265851	4177.690833	1100.646484	-42.087959
-7362.265851	4177.690833	1099.504883	44.681602
-7362.265851	4177.690833	1098.363281	219.129913
-7362.265851	4177.690833	1097.221680	11.131004
-7362.265851	4177.690833	1096.079102	248.276413
-7362.265851	4177.690833	1094.936523	243.290039
-7362.265851	4177.690833	1093.793945	168.815491
-7362.265851	4177.690833	1092.651367	43.251228
-7362.265851	4177.690833	1091.507813	96.576385
-7362.265851	4177.690833	1090.364258	93.200554
-7362.265851	4177.690833	1089.220703	52.749752
-7362.265851	4177.690833	1088.077148	111.088295
-7362.265851	4177.690833	1086.933594	222.868591
-7362.265851	4177.690833	1085.789063	35.457325
-7362.265851	4177.690833	1084.644531	87.548431
-7362.265851	4177.690833	1083.499023	64.391365
-7362.265851	4177.690833	1082.354492	-39.375896
-7362.265851	4177.690833	1081.208984	-3.862911
-7362.265851	4177.690833	1080.063477	35.698578
-7362.265851	4177.690833	1078.917969	234.945374
-7362.265851	4177.690833	1077.771484	252.949081
-7362.265851	4177.690833	1076.625977	132.975891
-7362.265851	4177.690833	1075.479492	204.963867
-7362.265851	4177.690833	1074.332031	-24.745214
-7362.265851	4177.690833	1073.185547	144.154068
-7362.265851	4177.690833	1072.038086	87.173859
-7362.265851	4177.690833	1070.890625	64.049416
-7362.265851	4177.690833	1069.743164	167.893158
-7362.265851	4177.690833	1068.594727	311.146637
-7362.265851	4177.690833	1067.447266	195.436844
-7362.265851	4177.690833	1066.298828	258.797119
-7362.265851	4177.690833	1065.149414	360.595642
-7362.265851	4177.690833	1064.000977	351.368774
-7362.265851	4177.690833	1062.851563	233.132111
-7362.265851	4177.690833	1061.702148	79.906357
-7362.265851	4177.690833	1060.552734	190.705292
-7362.265851	4177.690833	1059.402344	143.661713
-7362.265851	4177.690833	1058.252930	-32.638035
-7362.265851	4177.690833	1057.102539	114.507996
-7362.265851	4177.690833	1055.951172	-51.477272
-7362.265851	4177.690833	1054.800781	-57.058113
-7362.265851	4177.690833	1053.649414	-103.972176
-7362.265851	4177.690833	1052.498047	-0.045253
-7362.265851	4177.690833	1051.346680	-14.175641
-7362.265851	4177.690833	1050.194336	184.307358
-7362.265851	4177.690833	1049.042969	-72.112038
-7362.265851	4177.690833	1047.890625	37.674984
-7362.265851	4177.690833	1046.738281	63.242165
-7362.265851	4177.690833	1045.584961	-6.022113
-7362.265851	4177.690833	1044.431641	78.359268
-7362.265851	4177.690833	1043.278320	-127.890869
-7362.265851	4177.690833	1042.125000	-159.089767
-7362.265851	4177.690833	1040.971680	-18.223562
-7362.265851	4177.690833	1039.817383	202.911438
-7362.265851	4177.690833	1038.663086	-19.510271
-7362.265851	4177.690833	1037.508789	119.937271
-7362.265851	4177.690833	1036.353516	110.834671
-7362.265851	4177.690833	1035.198242	2.969776
-7362.265851	4177.690833	1034.042969	75.463852
-7362.265851	4177.690833	1032.887695	104.362000
-7362.265851	4177.690833	1031.732422	93.348961
-7362.265851	4177.690833	1030.576172	146.657578
-7362.265851	4177.690833	1029.419922	295.305298
-7362.265851	4177.690833	1028.263672	261.439819
-7362.265851	4177.690833	1027.106445	255.246964
-7362.265851	4177.690833	1025.949219	122.282417
-7362.265851	4177.690833	1024.792969	212.337204
-7362.265851	4177.690833	1023.634766	114.428535
-7362.265851	4177.690833	1022.477539	-66.481903
-7362.265851	4177.690833	1021.319336	61.272289
-7362.265851	4177.690833	1020.161133	150.718521
-7362.265851	4177.690833	1019.002930	-337.018005
-7362.265851	4177.690833	1017.843750	104.797272
-7362.265851	4177.690833	1016.684570	123.810974
-7362.265851	4177.690833	1015.525391	239.770340
-7362.265851	4177.690833	1014.366211	-99.193565
-7362.265851	4177.690833	1013.207031	91.069832
-7362.265851	4177.690833	1012.046875	-88.585854
-7362.265851	4177.690833	1010.886719	-80.706291
-7362.265851	4177.690833	1009.726563	-162.080353
-7362.265851	4177.690833	1008.565430	-112.236305
-7362.265851	4177.690833	1007.404297	3.791954
-7362.265851	4177.690833	1006.243164	50.990940
-7362.265851	4177.690833	1005.082031	88.436035
-7362.265851	4177.690833	1003.920898	-86.850105
-7362.265851	4177.690833	1002.758789	90.586571
-7362.265851	4177.690833	1001.596680	-3.815073
-7362.265851	4177.690833	1000.433594	-14.651795
-7362.265851	4177.690833	999.271484	-6.792053
-7362.265851	4177.690833	998.108398	105.997208
-7362.265851	4177.690833	996.945313	-69.849976
-7362.265851	4177.690833	995.782227	190.579666
-7362.265851	4177.690833	994.618164	-64.017731
-7362.265851	4177.690833	993.454102	29.588785
-7362.265851	4177.690833	992.290039	-48.544933
-7362.265851	4177.690833	991.125977	-140.968506
-7362.265851	4177.690833	989.960938	27.056116
-7362.265851	4177.690833	988.796875	66.001595
-7362.265851	4177.690833	987.630859	-83.641945
-7362.265851	4177.690833	986.465820	10.866194
-7362.265851	4177.690833	985.300781	-159.740829
-7362.265851	4177.690833	984.134766	-33.693794
-7362.265851	4177.690833	982.968750	-79.795776
-7362.265851	4177.690833	981.801758	85.247795
-7362.265851	4177.690833	980.635742	-81.597038
-7362.265851	4177.690833	979.468750	-61.914165
-7362.265851	4177.690833	978.301758	133.918198
-7362.265851	4177.690833	977.133789	157.359604
-7362.265851	4177.690833	975.966797	116.980705
-7362.265851	4177.690833	974.798828	166.932831
-7362.265851	4177.690833	973.630859	84.817299
-7362.265851	4177.690833	972.461914	84.430542
-7362.265851	4177.690833	971.293945	139.518097
-7362.265851	4177.690833	970.125000	19.165749
-7362.265851	4177.690833	968.956055	-74.883507
-7362.265851	4177.690833	967.786133	-56.851883
-7362.265851	4177.690833	966.617188	-55.886311
-7362.265851	4177.690833	965.447266	-106.583725
-7362.265851	4177.690833	964.276367	30.008141
-7362.265851	4177.690833	963.106445	82.619377
-7362.265851	4177.690833	961.935547	-160.891953
-7362.265851	4177.690833	960.764648	-21.475174
-7362.265851	4177.690833	959.593750	-97.299095
-7362.265851	4177.690833	958.422852	106.933304
-7362.265851	4177.690833	957.250977	182.757492
-7362.265851	4177.690833	956.079102	-42.635197
-7362.265851	4177.690833	954.907227	65.437019
-7362.265851	4177.690833	953.734375	93.336708
-7362.265851	4177.690833	952.562500	-213.824966
-7362.265851	4177.690833	951.389648	132.233643
-7362.265851	4177.690833	950.215820	6.955988
-7362.265851	4177.690833	949.042969	49.339024
-7362.265851	4177.690833	947.869141	95.758072
-7362.265851	4177.690833	946.695313	125.767838
-7362.265851	4177.690833	945.521484	93.884041
-7362.265851	4177.690833	944.346680	295.063873
-7362.265851	4177.690833	943.172852	-170.412369
-7362.265851	4177.690833	941.998047	167.802155
-7362.265851	4177.690833	940.822266	116.134277
-7362.265851	4177.690833	939.647461	55.037178
-7362.265851	4177.690833	938.471680	113.971916
-7362.265851	4177.690833	937.295898	-82.194252
-7362.265851	4177.690833	936.119141	-72.448570
-7362.265851	4177.690833	934.943359	59.891712
-7362.265851	4177.690833	933.766602	23.247505
-7362.265851	4177.690833	932.589844	-52.851784
-7362.265851	4177.690833	931.413086	241.205246
-7362.265851	4177.690833	930.235352	184.748657
-7362.265851	4177.690833	929.057617	228.739532
-7362.265851	4177.690833	927.879883	583.785339
-7362.265851	4177.690833	926.702148	399.914490
-7362.265851	4177.690833	925.523438	22.603462
-7362.265851	4177.690833	924.344727	179.187363
-7362.265851	4177.690833	923.166016	225.515884
-7362.265851	4177.690833	921.987305	-14.547678
-7362.265851	4177.690833	920.807617	12.209471
-7362.265851	4177.690833	919.627930	16.728914
-7362.265851	4177.690833	919.497070	71.253799
-7362.265851	4177.690833	918.331055	-65.990555
-7362.265851	4177.690833	917.165039	-85.793564
-7362.265851	4177.690833	915.999023	-64.031158
-7362.265851	4177.690833	914.833008	-242.757034
-7362.265851	4177.690833	913.666016	45.434872
-7362.265851	4177.690833	912.499023	74.460785
-7362.265851	4177.690833	911.332031	137.669357
-7362.265851	4177.690833	910.165039	112.902382
-7362.265851	4177.690833	908.997070	-104.800331
-7362.265851	4177.690833	907.830078	117.089058
-7362.265851	4177.690833	906.661133	-83.455643
-7362.265851	4177.690833	905.493164	189.577103
-7362.265851	4177.690833	904.325195	25.679226
-7362.265851	4177.690833	903.156250	220.488083
-7362.265851	4177.690833	901.987305	46.874073
-7362.265851	4177.690833	900.818359	-65.709694
-7362.265851	4177.690833	899.648438	-53.902264
-7362.265851	4177.690833	898.478516	211.420685
-7362.265851	4177.690833	897.308594	208.520844
-7362.265851	4177.690833	896.138672	276.279053
-7362.265851	4177.690833	894.968750	112.548752
-7362.265851	4177.690833	893.797852	241.175247
-7362.265851	4177.690833	892.626953	289.372711
-7362.265851	4177.690833	891.456055	135.449692
-7362.265851	4177.690833	890.284180	419.758270
-7362.265851	4177.690833	889.113281	56.540398
-7362.265851	4177.690833	887.941406	175.261017
-7362.265851	4177.690833	886.768555	65.239342
-7362.265851	4177.690833	885.596680	152.265274
-7362.265851	4177.690833	884.423828	105.497971
-7362.265851	4177.690833	883.250977	-28.790693
-7362.265851	4177.690833	882.078125	114.078873
-7362.265851	4177.690833	880.905273	-236.480316
-7362.265851	4177.690833	879.731445	-49.909306
-7362.265851	4177.690833	878.557617	90.414383
-7362.265851	4177.690833	877.383789	220.954514
-7362.265851	4177.690833	876.209961	79.452209
-7362.265851	4177.690833	875.035156	263.332581
-7362.265851	4177.690833	873.860352	85.447609
-7362.265851	4177.690833	872.685547	106.626297
-7362.265851	4177.690833	871.510742	217.557983
-7362.265851	4177.690833	870.334961	-37.871353
-7362.265851	4177.690833	869.159180	46.343643
-7362.265851	4177.690833	867.983398	174.157913
-7362.265851	4177.690833	866.807617	-93.266556
-7362.265851	4177.690833	865.630859	238.106552
-7362.265851	4177.690833	864.454102	-99.524033
-7362.265851	4177.690833	863.277344	-88.134041
-7362.265851	4177.690833	862.100586	66.158226
-7362.265851	4177.690833	860.922852	138.031601
-7362.265851	4177.690833	859.745117	35.520771
-7362.265851	4177.690833	858.567383	-50.016010
-7362.265851	4177.690833	857.389648	91.985550
-7362.265851	4177.690833	856.210938	-3.233281
-7362.265851	4177.690833	855.032227	-4.072339
-7362.265851	4177.690833	853.853516	178.912537
-7362.265851	4177.690833	852.674805	61.922348
-7362.265851	4177.690833	851.495117	29.595757
-7362.265851	4177.690833	850.315430	38.362064
-7362.265851	4177.690833	849.135742	-160.746689
-7362.265851	4177.690833	847.956055	-149.560776
-7362.265851	4177.690833	846.775391	6.564269
-7362.265851	4177.690833	845.595703	99.803772
-7362.265851	4177.690833	844.415039	19.114780
-7362.265851	4177.690833	843.233398	-112.257828
-7362.265851	4177.690833	842.052734	-93.932594
-7362.265851	4177.690833	840.871094	76.419510
-7362.265851	4177.690833	839.689453	-45.284817
-7362.265851	4177.690833	838.506836	-142.829956
-7362.265851	4177.690833	837.325195	111.791641
-7362.265851	4177.690833	836.142578	57.624683
-7362.265851	4177.690833	834.959961	-211.115250
-7362.265851	4177.690833	833.777344	21.615555
-7362.265851	4177.690833	832.593750	-239.811127
-7362.265851	4177.690833	831.410156	50.621094
-7362.265851	4177.690833	830.226563	71.108276
-7362.265851	4177.690833	829.042969	-60.168186
-7362.265851	4177.690833	827.858398	-266.055359
-7362.265851	4177.690833	826.673828	57.771824
-7362.265851	4177.690833	825.489258	-184.201553
-7362.265851	4177.690833	824.304688	-103.624176
-7362.265851	4177.690833	823.120117	80.357208
-7362.265851	4177.690833	821.934570	131.941345
-7362.265851	4177.690833	820.749023	-47.400158
-7362.265851	4177.690833	819.562500	-63.179550
-7362.265851	4177.690833	818.376953	-45.320423
-7362.265851	4177.690833	817.190430	-70.752296
-7362.265851	4177.690833	816.003906	28.760172
-7362.265851	4177.690833	814.817383	-210.548920
-7362.265851	4177.690833	813.629883	-87.071800
-7362.265851	4177.690833	812.442383	-141.383621
-7362.265851	4177.690833	811.254883	73.219429
-7362.265851	4177.690833	810.067383	26.049570
-7362.265851	4177.690833	808.878906	-184.326538
-7362.265851	4177.690833	807.690430	-39.505447
-7362.265851	4177.690833	806.501953	9.267419
-7362.265851	4177.690833	805.313477	-150.681076
-7362.265851	4177.690833	804.124023	-128.334167
-7362.265851	4177.690833	802.934570	-22.106691
-7362.265851	4177.690833	801.745117	232.669006
-7362.265851	4177.690833	800.555664	173.359818
-7362.265851	4177.690833	799.365234	-44.091785
-7362.265851	4177.690833	798.175781	-60.253273
-7362.265851	4177.690833	796.985352	-153.076385
-7362.265851	4177.690833	795.793945	-13.611304
-7362.265851	4177.690833	794.603516	-82.522018
-7362.265851	4177.690833	793.412109	-125.101234
-7362.265851	4177.690833	792.220703	-138.973572
-7362.265851	4177.690833	791.028320	95.963394
-7362.265851	4177.690833	789.836914	26.972616
-7362.265851	4177.690833	788.644531	-120.941933
-7362.265851	4177.690833	787.452148	-8.191892
-7362.265851	4177.690833	786.258789	-53.298954
-7362.265851	4177.690833	785.066406	49.766632
-7362.265851	4177.690833	783.873047	-12.124181
-7362.265851	4177.690833	782.679688	-35.795040
-7362.265851	4177.690833	781.485352	-131.145676
-7362.265851	4177.690833	780.291992	64.863640
-7362.265851	4177.690833	779.097656	-1.881708
-7362.265851	4177.690833	777.903320	-97.278496
-7362.265851	4177.690833	776.708008	-23.214851
-7362.265851	4177.690833	775.512695	-27.958588
-7362.265851	4177.690833	774.318359	41.219650
-7362.265851	4177.690833	773.122070	-1.764948
-7362.265851	4177.690833	771.926758	-78.154350
-7362.265851	4177.690833	770.730469	-6.725663
-7362.265851	4177.690833	769.534180	83.707535
-7362.265851	4177.690833	768.337891	-64.252510
-7362.265851	4177.690833	767.141602	90.415375
-7362.265851	4177.690833	765.944336	-5.146903
-7362.265851	4177.690833	764.747070	27.906378
-7362.265851	4177.690833	763.549805	56.145233
-7362.265851	4177.690833	762.351563	153.378464
-7362.265851	4177.690833	761.154297	133.900635
-7362.265851	4177.690833	759.956055	9.686080
-7362.265851	4177.690833	758.757813	-26.483788
-7362.265851	4177.690833	757.558594	94.320824
-7362.265851	4177.690833	756.359375	124.662651
-7362.265851	4177.690833	755.160156	21.799223
-7362.265851	4177.690833	753.960938	246.998825
-7362.265851	4177.690833	752.761719	51.379318
-7362.265851	4177.690833	751.561523	100.557854
-7362.265851	4177.690833	750.361328	78.401062
-7362.265851	4177.690833	749.160156	-83.927132
-7362.265851	4177.690833	747.959961	67.240646
-7362.265851	4177.690833	746.758789	52.105572
-7362.265851	4177.690833	745.557617	127.138908
-7362.265851	4177.690833	744.356445	-9.124454
-7362.265851	4177.690833	743.154297	-93.171104
-7362.265851	4177.690833	741.952148	-49.120502
-7362.265851	4177.690833	740.750000	236.791763
-7362.265851	4177.690833	739.547852	-15.745112
-7362.265851	4177.690833	738.344727	75.548759
-7362.265851	4177.690833	737.142578	19.800352
-7362.265851	4177.690833	735.939453	-109.433281
-7362.265851	4177.690833	734.735352	10.123880
-7362.265851	4177.690833	733.532227	75.101982
-7362.265851	4177.690833	732.328125	-18.669676
-7362.265851	4177.690833	731.124023	-39.044567
-7362.265851	4177.690833	729.918945	84.952278
-7362.265851	4177.690833	728.714844	-58.602413
-7362.265851	4177.690833	727.509766	96.017860
-7362.265851	4177.690833	726.303711	-28.643276
-7362.265851	4177.690833	725.098633	102.160103
-7362.265851	4177.690833	723.892578	-46.192402
-7362.265851	4177.690833	722.686523	112.839577
-7362.265851	4177.690833	721.480469	-106.462883
-7362.265851	4177.690833	720.274414	-75.201523
-7362.265851	4177.690833	719.067383	154.482117
-7362.265851	4177.690833	717.860352	39.112007
-7362.265851	4177.690833	716.653320	34.751438
-7362.265851	4177.690833	715.445313	-12.160151
-7362.265851	4177.690833	714.238281	-354.214020
-7362.265851	4177.690833	713.030273	40.277435
-7362.265851	4177.690833	711.821289	-39.790562
-7362.265851	4177.690833	710.613281	-235.484573
-7362.265851	4177.690833	709.404297	71.306564
-7362.265851	4177.690833	708.195313	-131.502213
-7362.265851	4177.690833	706.986328	-129.133652
-7362.265851	4177.690833	705.776367	-25.445488
-7362.265851	4177.690833	704.566406	97.005676
-7362.265851	4177.690833	703.356445	122.740250
-7362.265851	4177.690833	702.146484	-77.757454
-7362.265851	4177.690833	700.935547	-19.119698
-7362.265851	4177.690833	699.724609	1.763106
-7362.265851	4177.690833	698.513672	-64.527069
-7362.265851	4177.690833	697.302734	0.982388
-7362.265851	4177.690833	696.090820	-32.431721
-7362.265851	4177.690833	694.878906	49.413609
-7362.265851	4177.690833	693.666992	70.010551
-7362.265851	4177.690833	692.455078	175.219437
-7362.265851	4177.690833	691.242188	139.242706
-7362.265851	4177.690833	690.029297	-30.777420
-7362.265851	4177.690833	688.816406	24.874861
-7362.265851	4177.690833	687.602539	5.250551
-7362.265851	4177.690833	686.389648	-37.910519
-7362.265851	4177.690833	685.175781	-12.982963
-7362.265851	4177.690833	683.960938	230.298767
-7362.265851	4177.690833	682.747070	140.003876
-7362.265851	4177.690833	681.532227	106.037796
-7362.265851	4177.690833	680.317383	36.829250
-7362.265851	4177.690833	679.102539	75.541389
-7362.265851	4177.690833	677.886719	-40.654911
-7362.265851	4177.690833	676.670898	-34.882561
-7362.265851	4177.690833	675.455078	186.586090
-7362.265851	4177.690833	674.239258	255.511887
-7362.265851	4177.690833	673.022461	111.044121
-7362.265851	4177.690833	671.805664	46.270012
-7362.265851	4177.690833	670.588867	84.570580
-7362.265851	4177.690833	669.372070	-73.975899
-7362.265851	4177.690833	668.154297	1.707457
-7362.265851	4177.690833	666.936523	60.917076
-7362.265851	4177.690833	665.718750	94.300606
-7362.265851	4177.690833	664.500977	76.125824
-7362.265851	4177.690833	663.282227	109.391357
-7362.265851	4177.690833	662.063477	-18.841505
-7362.265851	4177.690833	660.844727	150.004593
-7362.265851	4177.690833	659.625000	38.088394
-7362.265851	4177.690833	658.405273	96.858986
-7362.265851	4177.690833	657.185547	5.944556
-7362.265851	4177.690833	655.965820	-26.550129
-7362.265851	4177.690833	654.745117	34.388031
-7362.265851	4177.690833	653.525391	90.582260
-7362.265851	4177.690833	652.303711	-175.626022
-7362.265851	4177.690833	651.083008	-12.087404
-7362.265851	4177.690833	649.861328	118.647751
-7362.265851	4177.690833	648.640625	113.898117
-7362.265851	4177.690833	647.417969	78.762520
-7362.265851	4177.690833	646.196289	122.927979
-7362.265851	4177.690833	644.973633	134.369263
-7362.265851	4177.690833	643.750977	19.818270
-7362.265851	4177.690833	642.528320	91.812492
-7362.265851	4177.690833	641.305664	33.180443
-7362.265851	4177.690833	640.082031	74.750366
-7362.265851	4177.690833	638.858398	181.507263
-7362.265851	4177.690833	637.634766	204.304123
-7362.265851	4177.690833	636.410156	87.288414
-7362.265851	4177.690833	635.185547	82.061516
-7362.265851	4177.690833	633.960938	-53.589989
-7362.265851	4177.690833	632.736328	-54.211540
-7362.265851	4177.690833	631.510742	-50.223083
-7362.265851	4177.690833	630.285156	97.987633
-7362.265851	4177.690833	629.059570	215.852753
-7362.265851	4177.690833	627.833984	-15.248307
-7362.265851	4177.690833	626.607422	-20.733637
-7362.265851	4177.690833	625.380859	173.681061
-7362.265851	4177.690833	624.154297	149.485611
-7362.265851	4177.690833	622.927734	92.729347
-7362.265851	4177.690833	621.700195	166.065430
-7362.265851	4177.690833	620.472656	-2.245132
-7362.265851	4177.690833	619.245117	129.066803
-7362.265851	4177.690833	618.016602	4.876965
-7362.265851	4177.690833	616.788086	166.237503
-7362.265851	4177.690833	615.559570	28.097281
-7362.265851	4177.690833	614.331055	-105.377090
-7362.265851	4177.690833	613.101563	-76.435905
-7362.265851	4177.690833	611.872070	-8.108900
-7362.265851	4177.690833	610.642578	118.130928
-7362.265851	4177.690833	609.413086	-17.699163
-7362.265851	4177.690833	608.182617	-30.654222
-7362.265851	4177.690833	606.952148	-113.156433
-7362.265851	4177.690833	605.721680	-144.680710
-7362.265851	4177.690833	604.491211	-48.813286
-7362.265851	4177.690833	603.259766	-117.452995
-7362.265851	4177.690833	602.028320	-24.006289
-7362.265851	4177.690833	600.796875	-143.606247
-7362.265851	4177.690833	599.564453	-57.193733
-7362.265851	4177.690833	598.332031	-24.064768
-7362.265851	4177.690833	597.099609	27.533339
-7362.265851	4177.690833	595.867188	99.903076
-7362.265851	4177.690833	594.633789	51.963898
-7362.265851	4177.690833	593.400391	41.015579
-7362.265851	4177.690833	592.166992	-34.673534
-7362.265851	4177.690833	590.933594	104.577980
-7362.265851	4177.690833	589.699219	56.589916
-7362.265851	4177.690833	588.464844	200.338913
-7362.265851	4177.690833	587.230469	295.507385
-7362.265851	4177.690833	585.995117	249.759842
-7362.265851	4177.690833	584.760742	125.524498
-7362.265851	4177.690833	583.525391	167.507492
-7362.265851	4177.690833	582.289063	22.535774
-7362.265851	4177.690833	581.053711	131.398956
-7362.265851	4177.690833	579.817383	111.025795
-7362.265851	4177.690833	578.581055	99.873520
-7362.265851	4177.690833	577.343750	144.046051
-7362.265851	4177.690833	576.107422	144.393631
-7362.265851	4177.690833	574.870117	61.758053
-7362.265851	4177.690833	573.631836	142.741669
-7362.265851	4177.690833	572.394531	214.469177
-7362.265851	4177.690833	571.156250	55.836048
-7362.265851	4177.690833	569.917969	26.214615
-7362.265851	4177.690833	568.679688	-113.907990
-7362.265851	4177.690833	567.440430	36.036976
-7362.265851	4177.690833	566.202148	100.769936
-7362.265851	4177.690833	564.961914	11.315774
-7362.265851	4177.690833	563.722656	96.717628
-7362.265851	4177.690833	562.482422	16.495934
-7362.265851	4177.690833	561.243164	44.374050
-7362.265851	4177.690833	560.001953	60.739136
-7362.265851	4177.690833	558.761719	251.768127
-7362.265851	4177.690833	557.520508	148.597641
-7362.265851	4177.690833	556.279297	70.741585
-7362.265851	4177.690833	555.038086	277.724182
-7362.265851	4177.690833	553.795898	64.393456
-7362.265851	4177.690833	552.554688	209.308609
-7362.265851	4177.690833	551.311523	101.673233
-7362.265851	4177.690833	550.069336	294.715912
-7362.265851	4177.690833	548.826172	79.285194
-7362.265851	4177.690833	547.583984	54.345493
-7362.265851	4177.690833	546.339844	52.351425
-7362.265851	4177.690833	545.096680	-371.518372
-7362.265851	4177.690833	543.852539	-125.827415
-7362.265851	4177.690833	542.608398	-49.831512
-7362.265851	4177.690833	541.364258	35.307911
-7362.265851	4177.690833	540.119141	-101.800430
-7362.265851	4177.690833	538.875000	33.724667
-7362.265851	4177.690833	537.628906	-110.173798
-7362.265851	4177.690833	536.383789	174.128815
-7362.265851	4177.690833	535.137695	158.468414
-7362.265851	4177.690833	533.892578	-92.878448
-7362.265851	4177.690833	532.645508	-264.032166
-7362.265851	4177.690833	531.399414	-94.259949
-7362.265851	4177.690833	530.152344	-210.421158
-7362.265851	4177.690833	528.905273	-68.142952
-7362.265851	4177.690833	527.658203	-195.658295
-7362.265851	4177.690833	526.410156	-373.385864
-7362.265851	4177.690833	525.163086	-55.167603
-7362.265851	4177.690833	523.914063	-173.419678
-7362.265851	4177.690833	522.666016	-65.479080
-7362.265851	4177.690833	521.416992	-217.894592
-7362.265851	4177.690833	520.167969	-132.787827
-7362.265851	4177.690833	518.918945	-170.957306
-7362.265851	4177.690833	517.669922	-163.448700
-7362.265851	4177.690833	516.419922	-60.100697
-7362.265851	4177.690833	515.169922	-271.568298
-7362.265851	4177.690833	513.919922	-140.834747
-7362.265851	4177.690833	512.668945	-128.705582
-7362.265851	4177.690833	511.417969	54.411106
-7362.265851	4177.690833	510.166992	-143.147720
-7362.265851	4177.690833	508.916016	-46.654518
-7362.265851	4177.690833	507.664063	-191.670776
-7362.265851	4177.690833	506.412109	-97.449509
-7362.265851	4177.690833	505.160156	-180.868790
-7362.265851	4177.690833	503.907227	43.119205
-7362.265851	4177.690833	502.655273	75.831429
-7362.265851	4177.690833	501.402344	99.444656
-7362.265851	4177.690833	500.148438	-56.679070
-7362.265851	4177.690833	498.895508	-76.228889
-7362.265851	4177.690833	497.641602	-79.835709
-7362.265851	4177.690833	496.387695	-44.768696
-7362.265851	4177.690833	495.132813	-109.725395
-7362.265851	4177.690833	493.878906	-58.723408
-7362.265851	4177.690833	492.624023	76.345520
-7362.265851	4177.690833	491.368164	-22.624699
-7362.265851	4177.690833	490.113281	78.339264
-7362.265851	4177.690833	488.857422	31.669800
-7362.265851	4177.690833	487.601563	21.357964
-7362.265851	4177.690833	486.344727	-43.415199
-7362.265851	4177.690833	485.088867	-78.644485
-7362.265851	4177.690833	483.832031	165.219528
-7362.265851	4177.690833	482.575195	107.293533
-7362.265851	4177.690833	481.317383	51.667534
-7362.265851	4177.690833	480.059570	-65.148376
-7362.265851	4177.690833	478.801758	-14.156511
-7362.265851	4177.690833	477.543945	57.214939
-7362.265851	4177.690833	476.285156	137.620132
-7362.265851	4177.690833	475.027344	-19.876856
-7362.265851	4177.690833	473.767578	26.533998
-7362.265851	4177.690833	472.508789	27.636906
-7362.265851	4177.690833	471.249023	21.939589
-7362.265851	4177.690833	469.989258	131.677048
-7362.265851	4177.690833	468.729492	175.732010
-7362.265851	4177.690833	467.469727	102.107292
-7362.265851	4177.690833	466.208984	57.906487
-7362.265851	4177.690833	464.948242	230.816391
-7362.265851	4177.690833	463.686523	107.436501
-7362.265851	4177.690833	462.425781	24.782181
-7362.265851	4177.690833	461.164063	-64.641670
-7362.265851	4177.690833	459.901367	94.500069
-7362.265851	4177.690833	458.639648	29.897354
-7362.265851	4177.690833	457.376953	344.734344
-7362.265851	4177.690833	456.114258	-15.774564
-7362.265851	4177.690833	454.851563	32.466148
-7362.265851	4177.690833	453.587891	218.328354
-7362.265851	4177.690833	452.324219	302.517426
-7362.265851	4177.690833	451.060547	228.690964
-7362.265851	4177.690833	449.796875	382.669556
-7362.265851	4177.690833	448.532227	234.328323
-7362.265851	4177.690833	447.267578	207.746292
-7362.265851	4177.690833	446.002930	167.588379
-7362.265851	4177.690833	444.737305	240.063156
-7362.265851	4177.690833	443.471680	292.156586
-7362.265851	4177.690833	442.206055	170.690369
-7362.265851	4177.690833	440.940430	312.709717
-7362.265851	4177.690833	439.673828	132.575729
-7362.265851	4177.690833	438.407227	274.363800
-7362.265851	4177.690833	437.140625	127.892174
-7362.265851	4177.690833	435.873047	298.674530
-7362.265851	4177.690833	434.605469	388.282104
-7362.265851	4177.690833	433.337891	138.089310
-7362.265851	4177.690833	432.070313	220.717331
-7362.265851	4177.690833	430.801758	123.313698
-7362.265851	4177.690833	429.533203	50.547916
-7362.265851	4177.690833	428.264648	195.675491
-7362.265851	4177.690833	426.996094	360.818939
-7362.265851	4177.690833	425.726563	285.371704
-7362.265851	4177.690833	424.457031	131.192398
-7362.265851	4177.690833	423.186523	423.755859
-7362.265851	4177.690833	421.916992	314.180145
-7362.265851	4177.690833	420.646484	292.002411
-7362.265851	4177.690833	419.375977	197.841675
-7362.265851	4177.690833	418.104492	316.654846
-7362.265851	4177.690833	416.833008	376.896820
-7362.265851	4177.690833	415.561523	259.743988
-7362.265851	4177.690833	414.290039	445.097137
-7362.265851	4177.690833	413.017578	157.170425
-7362.265851	4177.690833	411.746094	236.672485
-7362.265851	4177.690833	410.472656	262.108643
-7362.265851	4177.690833	409.200195	166.319504
-7362.265851	4177.690833	407.926758	332.334839
-7362.265851	4177.690833	406.653320	298.721344
-7362.265851	4177.690833	405.379883	379.008148
-7362.265851	4177.690833	404.105469	311.239288
-7362.265851	4177.690833	402.831055	102.221588
-7362.265851	4177.690833	401.556641	181.572250
-7362.265851	4177.690833	400.282227	153.199219
-7362.265851	4177.690833	399.006836	352.583038
-7362.265851	4177.690833	397.731445	124.506981
-7362.265851	4177.690833	396.456055	383.445557
-7362.265851	4177.690833	395.179688	396.065155
-7362.265851	4177.690833	393.903320	428.398041
-7362.265851	4177.690833	392.626953	319.586761
-7362.265851	4177.690833	391.350586	364.504181
-7362.265851	4177.690833	390.073242	366.540833
-7362.265851	4177.690833	388.795898	392.687927
-7362.265851	4177.690833	387.518555	79.128883
-7362.265851	4177.690833	386.240234	111.082352
-7362.265851	4177.690833	384.961914	296.464386
-7362.265851	4177.690833	383.683594	135.555145
-7362.265851	4177.690833	382.405273	310.912720
-7362.265851	4177.690833	381.125977	1.867191
-7362.265851	4177.690833	379.846680	193.913864
-7362.265851	4177.690833	378.567383	338.514160
-7362.265851	4177.690833	377.287109	105.930389
-7362.265851	4177.690833	376.006836	218.104324
-7362.265851	4177.690833	374.726563	178.176956
-7362.265851	4177.690833	373.446289	226.690308
-7362.265851	4177.690833	372.165039	69.719765
-7362.265851	4177.690833	370.883789	79.058006
-7362.265851	4177.690833	369.602539	172.250809
-7362.265851	4177.690833	368.320313	231.305374
-7362.265851	4177.690833	367.039063	198.432388
-7362.265851	4177.690833	365.755859	149.219360
-7362.265851	4177.690833	364.473633	110.387268
-7362.265851	4177.690833	363.190430	75.203377
-7362.265851	4177.690833	361.907227	56.993507
-7362.265851	4177.690833	360.624023	113.489067
-7362.265851	4177.690833	359.340820	73.588036
-7362.265851	4177.690833	358.056641	-120.429352
-7362.265851	4177.690833	356.772461	182.053482
-7362.265851	4177.690833	355.487305	30.625996
-7362.265851	4177.690833	354.202148	-17.389759
-7362.265851	4177.690833	352.916992	124.444885
-7362.265851	4177.690833	351.631836	-211.717026
-7362.265851	4177.690833	350.346680	-56.418198
-7362.265851	4177.690833	349.060547	-194.958160
-7362.265851	4177.690833	347.774414	73.369217
-7362.265851	4177.690833	346.487305	1.335968
-7362.265851	4177.690833	345.200195	56.709324
-7362.265851	4177.690833	343.913086	28.918644
-7362.265851	4177.690833	342.625977	117.326378
-7362.265851	4177.690833	341.338867	-54.618626
-7362.265851	4177.690833	340.050781	22.390530
-7362.265851	4177.690833	338.762695	-25.879162
-7362.265851	4177.690833	337.473633	-117.533089
-7362.265851	4177.690833	336.184570	-133.066208
-7362.265851	4177.690833	334.895508	-72.562744
-7362.265851	4177.690833	333.606445	-62.159214
-7362.265851	4177.690833	332.317383	15.326620
-7362.265851	4177.690833	331.027344	-346.437592
-7362.265851	4177.690833	329.736328	-420.093506
-7362.265851	4177.690833	328.446289	-101.932556
-7362.265851	4177.690833	327.155273	-77.150177
-7362.265851	4177.690833	325.864258	-277.083282
-7362.265851	4177.690833	324.573242	-123.092430
-7362.265851	4177.690833	323.281250	93.095238
-7362.265851	4177.690833	321.989258	-87.643639
-7362.265851	4177.690833	320.697266	-106.798485
-7362.265851	4177.690833	319.405273	0.185538
-7362.265851	4177.690833	318.112305	-58.022537
-7362.265851	4177.690833	316.819336	-18.883375
-7362.265851	4177.690833	315.526367	-25.811003
-7362.265851	4177.690833	314.232422	-50.221024
-7362.265851	4177.690833	312.938477	-52.422600
-7362.265851	4177.690833	311.644531	172.432724
-7362.265851	4177.690833	310.349609	88.801361
-7362.265851	4177.690833	309.054688	157.188934
-7362.265851	4177.690833	307.759766	300.385010
-7362.265851	4177.690833	306.464844	95.626640
-7362.265851	4177.690833	305.168945	423.383942
-7362.265851	4177.690833	303.873047	429.563354
-7362.265851	4177.690833	302.577148	402.515839
-7362.265851	4177.690833	301.281250	485.177460
-7362.265851	4177.690833	299.984375	741.118103
