#X		#Y		#Wave		#Intensity
-7439.250532	4078.763667	1999.946289	-53.349152
-7439.250532	4078.763667	1998.981445	41.567383
-7439.250532	4078.763667	1998.017578	-159.885681
-7439.250532	4078.763667	1997.052734	-2.051961
-7439.250532	4078.763667	1996.088867	-62.426453
-7439.250532	4078.763667	1995.124023	65.380539
-7439.250532	4078.763667	1994.159180	-86.838890
-7439.250532	4078.763667	1993.193359	6.047198
-7439.250532	4078.763667	1992.228516	81.463387
-7439.250532	4078.763667	1991.262695	40.413029
-7439.250532	4078.763667	1990.296875	-37.841839
-7439.250532	4078.763667	1989.331055	-41.928341
-7439.250532	4078.763667	1988.365234	-68.370636
-7439.250532	4078.763667	1987.398438	-87.468849
-7439.250532	4078.763667	1986.432617	-2.779976
-7439.250532	4078.763667	1985.465820	104.049927
-7439.250532	4078.763667	1984.499023	64.901802
-7439.250532	4078.763667	1983.532227	-18.800526
-7439.250532	4078.763667	1982.565430	-18.526348
-7439.250532	4078.763667	1981.597656	45.914631
-7439.250532	4078.763667	1980.629883	88.027016
-7439.250532	4078.763667	1979.662109	-15.666922
-7439.250532	4078.763667	1978.694336	1.609906
-7439.250532	4078.763667	1977.726563	-8.343481
-7439.250532	4078.763667	1976.758789	-30.698812
-7439.250532	4078.763667	1975.790039	75.230110
-7439.250532	4078.763667	1974.821289	23.136995
-7439.250532	4078.763667	1973.852539	15.413464
-7439.250532	4078.763667	1972.883789	-66.362396
-7439.250532	4078.763667	1971.915039	22.004644
-7439.250532	4078.763667	1970.945313	-32.724022
-7439.250532	4078.763667	1969.975586	60.432991
-7439.250532	4078.763667	1969.005859	89.421768
-7439.250532	4078.763667	1968.036133	241.570190
-7439.250532	4078.763667	1967.066406	-0.605905
-7439.250532	4078.763667	1966.096680	111.999100
-7439.250532	4078.763667	1965.125977	25.019117
-7439.250532	4078.763667	1964.155273	216.295456
-7439.250532	4078.763667	1963.184570	134.172897
-7439.250532	4078.763667	1962.213867	192.354568
-7439.250532	4078.763667	1961.242188	149.571243
-7439.250532	4078.763667	1960.271484	74.779663
-7439.250532	4078.763667	1959.299805	78.710358
-7439.250532	4078.763667	1958.328125	-18.243597
-7439.250532	4078.763667	1957.356445	-53.709816
-7439.250532	4078.763667	1956.384766	151.775360
-7439.250532	4078.763667	1955.412109	187.526306
-7439.250532	4078.763667	1954.439453	88.049355
-7439.250532	4078.763667	1953.467773	-58.109493
-7439.250532	4078.763667	1952.495117	75.863113
-7439.250532	4078.763667	1951.521484	-11.330622
-7439.250532	4078.763667	1950.548828	102.886887
-7439.250532	4078.763667	1949.575195	155.648590
-7439.250532	4078.763667	1948.601563	-108.352188
-7439.250532	4078.763667	1947.627930	72.034462
-7439.250532	4078.763667	1946.654297	114.894936
-7439.250532	4078.763667	1945.680664	47.297997
-7439.250532	4078.763667	1944.706055	-76.718430
-7439.250532	4078.763667	1943.732422	-63.341824
-7439.250532	4078.763667	1942.757813	87.351799
-7439.250532	4078.763667	1941.783203	-115.114693
-7439.250532	4078.763667	1940.807617	-28.237267
-7439.250532	4078.763667	1939.833008	63.496826
-7439.250532	4078.763667	1938.857422	98.818962
-7439.250532	4078.763667	1937.881836	205.171402
-7439.250532	4078.763667	1936.906250	211.033798
-7439.250532	4078.763667	1935.930664	138.506409
-7439.250532	4078.763667	1934.955078	220.271515
-7439.250532	4078.763667	1933.978516	-30.980570
-7439.250532	4078.763667	1933.001953	38.527294
-7439.250532	4078.763667	1932.025391	12.550058
-7439.250532	4078.763667	1931.048828	-18.318975
-7439.250532	4078.763667	1930.072266	75.588669
-7439.250532	4078.763667	1929.094727	103.410439
-7439.250532	4078.763667	1928.118164	-22.858574
-7439.250532	4078.763667	1927.140625	44.080891
-7439.250532	4078.763667	1926.163086	125.658218
-7439.250532	4078.763667	1925.184570	-39.669918
-7439.250532	4078.763667	1924.207031	44.326412
-7439.250532	4078.763667	1923.228516	-28.087353
-7439.250532	4078.763667	1922.250000	-24.748972
-7439.250532	4078.763667	1921.271484	98.263268
-7439.250532	4078.763667	1920.292969	-59.600609
-7439.250532	4078.763667	1919.314453	-92.891594
-7439.250532	4078.763667	1918.334961	-21.207352
-7439.250532	4078.763667	1917.355469	-61.820786
-7439.250532	4078.763667	1916.375977	-90.220901
-7439.250532	4078.763667	1915.396484	-28.344009
-7439.250532	4078.763667	1914.416992	-61.622513
-7439.250532	4078.763667	1913.436523	66.069450
-7439.250532	4078.763667	1912.457031	96.178955
-7439.250532	4078.763667	1911.476563	114.085915
-7439.250532	4078.763667	1910.496094	58.862080
-7439.250532	4078.763667	1909.515625	62.144783
-7439.250532	4078.763667	1908.534180	80.043694
-7439.250532	4078.763667	1907.552734	-11.687349
-7439.250532	4078.763667	1906.572266	40.315815
-7439.250532	4078.763667	1905.590820	-29.459557
-7439.250532	4078.763667	1904.608398	-1.821510
-7439.250532	4078.763667	1903.626953	261.925934
-7439.250532	4078.763667	1902.644531	-36.629406
-7439.250532	4078.763667	1901.663086	-40.640713
-7439.250532	4078.763667	1900.680664	-88.443542
-7439.250532	4078.763667	1899.698242	48.634289
-7439.250532	4078.763667	1898.714844	-108.607239
-7439.250532	4078.763667	1897.732422	-54.249554
-7439.250532	4078.763667	1896.749023	-82.568695
-7439.250532	4078.763667	1895.765625	185.654846
-7439.250532	4078.763667	1894.782227	-17.670292
-7439.250532	4078.763667	1893.798828	-89.717499
-7439.250532	4078.763667	1892.814453	-1.409035
-7439.250532	4078.763667	1891.831055	-160.870331
-7439.250532	4078.763667	1890.846680	-191.572296
-7439.250532	4078.763667	1889.862305	-127.576752
-7439.250532	4078.763667	1888.877930	-32.049797
-7439.250532	4078.763667	1887.892578	-74.897629
-7439.250532	4078.763667	1886.908203	44.846092
-7439.250532	4078.763667	1885.922852	-41.672428
-7439.250532	4078.763667	1884.937500	-23.859253
-7439.250532	4078.763667	1883.952148	25.472485
-7439.250532	4078.763667	1882.965820	55.385792
-7439.250532	4078.763667	1881.980469	-89.259468
-7439.250532	4078.763667	1880.994141	54.576912
-7439.250532	4078.763667	1880.007813	6.913642
-7439.250532	4078.763667	1879.021484	12.569395
-7439.250532	4078.763667	1878.035156	100.582077
-7439.250532	4078.763667	1877.047852	14.176265
-7439.250532	4078.763667	1876.061523	235.332413
-7439.250532	4078.763667	1875.074219	223.979843
-7439.250532	4078.763667	1874.086914	-43.956039
-7439.250532	4078.763667	1873.098633	43.966118
-7439.250532	4078.763667	1872.111328	124.592995
-7439.250532	4078.763667	1871.123047	-210.925949
-7439.250532	4078.763667	1870.135742	-183.504272
-7439.250532	4078.763667	1869.147461	56.715965
-7439.250532	4078.763667	1868.158203	137.259918
-7439.250532	4078.763667	1867.169922	-9.469570
-7439.250532	4078.763667	1866.180664	17.872229
-7439.250532	4078.763667	1865.192383	74.196968
-7439.250532	4078.763667	1864.203125	19.354712
-7439.250532	4078.763667	1863.213867	-18.563580
-7439.250532	4078.763667	1862.223633	61.868202
-7439.250532	4078.763667	1861.234375	-205.454865
-7439.250532	4078.763667	1860.244141	104.322617
-7439.250532	4078.763667	1859.253906	27.767681
-7439.250532	4078.763667	1858.263672	83.968452
-7439.250532	4078.763667	1857.273438	108.772339
-7439.250532	4078.763667	1856.282227	66.010162
-7439.250532	4078.763667	1855.291992	117.324173
-7439.250532	4078.763667	1854.300781	76.971001
-7439.250532	4078.763667	1853.309570	-62.230309
-7439.250532	4078.763667	1852.317383	51.727306
-7439.250532	4078.763667	1851.326172	37.893856
-7439.250532	4078.763667	1850.333984	50.562046
-7439.250532	4078.763667	1849.342773	24.668146
-7439.250532	4078.763667	1848.350586	-30.132862
-7439.250532	4078.763667	1847.357422	49.944370
-7439.250532	4078.763667	1846.365234	7.177959
-7439.250532	4078.763667	1845.372070	63.121265
-7439.250532	4078.763667	1844.379883	232.162796
-7439.250532	4078.763667	1843.386719	78.649826
-7439.250532	4078.763667	1842.393555	11.802353
-7439.250532	4078.763667	1841.399414	33.976452
-7439.250532	4078.763667	1840.406250	-117.044250
-7439.250532	4078.763667	1839.412109	-10.712878
-7439.250532	4078.763667	1838.417969	-111.204391
-7439.250532	4078.763667	1837.423828	110.443832
-7439.250532	4078.763667	1836.429688	55.605064
-7439.250532	4078.763667	1835.434570	-6.435969
-7439.250532	4078.763667	1834.440430	-121.321770
-7439.250532	4078.763667	1833.445313	138.537369
-7439.250532	4078.763667	1832.450195	78.874290
-7439.250532	4078.763667	1831.454102	-36.008289
-7439.250532	4078.763667	1830.458984	106.010445
-7439.250532	4078.763667	1829.462891	-18.464775
-7439.250532	4078.763667	1828.466797	116.266235
-7439.250532	4078.763667	1827.470703	13.398042
-7439.250532	4078.763667	1826.474609	176.826401
-7439.250532	4078.763667	1825.478516	21.187792
-7439.250532	4078.763667	1824.481445	-40.888973
-7439.250532	4078.763667	1823.484375	-57.406757
-7439.250532	4078.763667	1822.487305	-45.170971
-7439.250532	4078.763667	1821.490234	77.286896
-7439.250532	4078.763667	1820.493164	103.834785
-7439.250532	4078.763667	1819.495117	-104.424927
-7439.250532	4078.763667	1818.498047	-6.031203
-7439.250532	4078.763667	1817.500000	99.489983
-7439.250532	4078.763667	1816.500977	37.347836
-7439.250532	4078.763667	1815.502930	-15.212809
-7439.250532	4078.763667	1814.504883	126.095474
-7439.250532	4078.763667	1813.505859	-22.221212
-7439.250532	4078.763667	1812.506836	20.901373
-7439.250532	4078.763667	1811.507813	18.538708
-7439.250532	4078.763667	1810.508789	104.646645
-7439.250532	4078.763667	1809.508789	63.969021
-7439.250532	4078.763667	1808.508789	51.974461
-7439.250532	4078.763667	1807.508789	-38.914864
-7439.250532	4078.763667	1806.508789	49.445877
-7439.250532	4078.763667	1805.508789	13.504744
-7439.250532	4078.763667	1804.508789	58.779621
-7439.250532	4078.763667	1803.507813	287.926849
-7439.250532	4078.763667	1802.506836	70.406876
-7439.250532	4078.763667	1801.505859	-61.100769
-7439.250532	4078.763667	1800.504883	-20.708063
-7439.250532	4078.763667	1799.502930	186.711960
-7439.250532	4078.763667	1798.501953	50.418518
-7439.250532	4078.763667	1797.500000	-47.675106
-7439.250532	4078.763667	1796.498047	104.703217
-7439.250532	4078.763667	1795.496094	-0.563843
-7439.250532	4078.763667	1794.493164	-62.895794
-7439.250532	4078.763667	1793.491211	-25.100067
-7439.250532	4078.763667	1792.488281	3.123134
-7439.250532	4078.763667	1791.485352	59.908375
-7439.250532	4078.763667	1790.482422	-26.306974
-7439.250532	4078.763667	1789.478516	-45.815060
-7439.250532	4078.763667	1788.475586	-5.795633
-7439.250532	4078.763667	1787.471680	46.089478
-7439.250532	4078.763667	1786.467773	-90.151993
-7439.250532	4078.763667	1785.463867	21.189827
-7439.250532	4078.763667	1784.459961	96.766685
-7439.250532	4078.763667	1783.455078	48.558296
-7439.250532	4078.763667	1782.450195	128.808350
-7439.250532	4078.763667	1781.445313	82.941078
-7439.250532	4078.763667	1780.440430	20.420269
-7439.250532	4078.763667	1779.435547	-44.479740
-7439.250532	4078.763667	1778.429688	-23.803257
-7439.250532	4078.763667	1777.424805	-53.069324
-7439.250532	4078.763667	1776.418945	7.947959
-7439.250532	4078.763667	1775.413086	-78.384476
-7439.250532	4078.763667	1774.406250	84.703438
-7439.250532	4078.763667	1773.400391	-27.786144
-7439.250532	4078.763667	1772.393555	-28.659220
-7439.250532	4078.763667	1771.386719	-55.672291
-7439.250532	4078.763667	1770.379883	78.702934
-7439.250532	4078.763667	1769.373047	77.733513
-7439.250532	4078.763667	1768.365234	79.109810
-7439.250532	4078.763667	1767.358398	47.250317
-7439.250532	4078.763667	1766.350586	62.810677
-7439.250532	4078.763667	1765.342773	121.023827
-7439.250532	4078.763667	1764.334961	-121.911995
-7439.250532	4078.763667	1763.326172	-47.146854
-7439.250532	4078.763667	1762.318359	101.035362
-7439.250532	4078.763667	1761.309570	26.398485
-7439.250532	4078.763667	1760.300781	103.384583
-7439.250532	4078.763667	1759.291016	-177.347900
-7439.250532	4078.763667	1758.282227	51.159069
-7439.250532	4078.763667	1757.272461	80.662308
-7439.250532	4078.763667	1756.262695	-55.579605
-7439.250532	4078.763667	1755.252930	47.252708
-7439.250532	4078.763667	1754.243164	45.900490
-7439.250532	4078.763667	1753.233398	39.791039
-7439.250532	4078.763667	1752.222656	40.752106
-7439.250532	4078.763667	1751.211914	74.797302
-7439.250532	4078.763667	1750.201172	-66.173416
-7439.250532	4078.763667	1749.190430	-15.622877
-7439.250532	4078.763667	1748.179688	34.882584
-7439.250532	4078.763667	1747.167969	-124.984650
-7439.250532	4078.763667	1746.156250	-107.609261
-7439.250532	4078.763667	1745.144531	63.284218
-7439.250532	4078.763667	1744.132813	45.138737
-7439.250532	4078.763667	1743.121094	-53.313187
-7439.250532	4078.763667	1742.108398	39.482098
-7439.250532	4078.763667	1741.095703	14.192270
-7439.250532	4078.763667	1740.083008	80.928772
-7439.250532	4078.763667	1739.070313	145.255661
-7439.250532	4078.763667	1738.057617	9.004613
-7439.250532	4078.763667	1737.043945	54.398602
-7439.250532	4078.763667	1736.030273	-39.386242
-7439.250532	4078.763667	1735.016602	-102.508484
-7439.250532	4078.763667	1734.002930	8.813251
-7439.250532	4078.763667	1732.989258	-80.268555
-7439.250532	4078.763667	1731.974609	66.302490
-7439.250532	4078.763667	1730.959961	3.108902
-7439.250532	4078.763667	1729.945313	-45.951233
-7439.250532	4078.763667	1728.930664	98.102226
-7439.250532	4078.763667	1727.916016	53.704479
-7439.250532	4078.763667	1726.900391	30.485575
-7439.250532	4078.763667	1725.885742	-51.589020
-7439.250532	4078.763667	1724.870117	-96.005478
-7439.250532	4078.763667	1723.853516	-11.023465
-7439.250532	4078.763667	1722.837891	-109.582161
-7439.250532	4078.763667	1721.822266	-5.857202
-7439.250532	4078.763667	1720.805664	100.153908
-7439.250532	4078.763667	1719.789063	-38.407936
-7439.250532	4078.763667	1718.772461	-176.938553
-7439.250532	4078.763667	1717.754883	-122.728920
-7439.250532	4078.763667	1716.738281	58.325478
-7439.250532	4078.763667	1715.720703	-28.529432
-7439.250532	4078.763667	1714.703125	-7.327447
-7439.250532	4078.763667	1713.685547	-134.101074
-7439.250532	4078.763667	1712.667969	-98.841805
-7439.250532	4078.763667	1711.649414	-30.756254
-7439.250532	4078.763667	1710.630859	-0.268754
-7439.250532	4078.763667	1709.612305	-16.745296
-7439.250532	4078.763667	1708.593750	53.570694
-7439.250532	4078.763667	1707.575195	81.617439
-7439.250532	4078.763667	1706.555664	-230.424561
-7439.250532	4078.763667	1705.536133	25.064436
-7439.250532	4078.763667	1704.516602	41.317078
-7439.250532	4078.763667	1703.497070	-85.431038
-7439.250532	4078.763667	1702.477539	-22.333475
-7439.250532	4078.763667	1701.457031	-95.174141
-7439.250532	4078.763667	1700.437500	94.359650
-7439.250532	4078.763667	1699.416992	-46.431519
-7439.250532	4078.763667	1698.395508	49.312431
-7439.250532	4078.763667	1697.375000	-28.240742
-7439.250532	4078.763667	1696.354492	-87.055618
-7439.250532	4078.763667	1695.333008	-59.278969
-7439.250532	4078.763667	1694.311523	-90.025238
-7439.250532	4078.763667	1693.290039	35.960735
-7439.250532	4078.763667	1692.267578	56.627354
-7439.250532	4078.763667	1691.246094	65.581062
-7439.250532	4078.763667	1690.223633	-189.683960
-7439.250532	4078.763667	1689.201172	-26.442209
-7439.250532	4078.763667	1688.178711	3.505810
-7439.250532	4078.763667	1687.155273	0.710021
-7439.250532	4078.763667	1686.132813	58.646141
-7439.250532	4078.763667	1685.109375	-70.319679
-7439.250532	4078.763667	1684.085938	137.035202
-7439.250532	4078.763667	1683.062500	1.071425
-7439.250532	4078.763667	1682.039063	84.581284
-7439.250532	4078.763667	1681.014648	77.016998
-7439.250532	4078.763667	1679.990234	41.440601
-7439.250532	4078.763667	1678.965820	66.524773
-7439.250532	4078.763667	1677.941406	-43.704788
-7439.250532	4078.763667	1676.916992	-4.645721
-7439.250532	4078.763667	1675.891602	13.397311
-7439.250532	4078.763667	1674.866211	143.322845
-7439.250532	4078.763667	1673.840820	126.345551
-7439.250532	4078.763667	1672.815430	39.452568
-7439.250532	4078.763667	1671.790039	264.791687
-7439.250532	4078.763667	1670.763672	-20.124437
-7439.250532	4078.763667	1669.737305	130.586700
-7439.250532	4078.763667	1668.710938	178.773087
-7439.250532	4078.763667	1667.684570	80.259247
-7439.250532	4078.763667	1666.658203	53.932247
-7439.250532	4078.763667	1665.630859	64.838432
-7439.250532	4078.763667	1664.603516	98.999969
-7439.250532	4078.763667	1663.576172	-15.744420
-7439.250532	4078.763667	1662.548828	309.138306
-7439.250532	4078.763667	1661.520508	152.520676
-7439.250532	4078.763667	1660.493164	93.609329
-7439.250532	4078.763667	1659.464844	204.400925
-7439.250532	4078.763667	1658.436523	222.179886
-7439.250532	4078.763667	1657.408203	163.266342
-7439.250532	4078.763667	1656.378906	194.970337
-7439.250532	4078.763667	1655.350586	117.491722
-7439.250532	4078.763667	1654.321289	321.030731
-7439.250532	4078.763667	1653.291992	417.681366
-7439.250532	4078.763667	1652.261719	282.148621
-7439.250532	4078.763667	1651.232422	253.430771
-7439.250532	4078.763667	1650.202148	222.395981
-7439.250532	4078.763667	1649.171875	430.333588
-7439.250532	4078.763667	1648.141602	299.528107
-7439.250532	4078.763667	1647.111328	405.322693
-7439.250532	4078.763667	1646.080078	534.257263
-7439.250532	4078.763667	1645.049805	313.089447
-7439.250532	4078.763667	1644.018555	275.107269
-7439.250532	4078.763667	1642.987305	471.190399
-7439.250532	4078.763667	1641.955078	423.918396
-7439.250532	4078.763667	1640.923828	337.289032
-7439.250532	4078.763667	1639.891602	510.080597
-7439.250532	4078.763667	1638.859375	367.891083
-7439.250532	4078.763667	1637.827148	336.881470
-7439.250532	4078.763667	1636.794922	370.695679
-7439.250532	4078.763667	1635.761719	348.952759
-7439.250532	4078.763667	1634.729492	570.168091
-7439.250532	4078.763667	1633.696289	240.729385
-7439.250532	4078.763667	1632.662109	195.898239
-7439.250532	4078.763667	1631.628906	343.020538
-7439.250532	4078.763667	1630.594727	182.594376
-7439.250532	4078.763667	1629.561523	193.289841
-7439.250532	4078.763667	1628.527344	437.398010
-7439.250532	4078.763667	1627.493164	371.793671
-7439.250532	4078.763667	1626.458008	398.621826
-7439.250532	4078.763667	1625.423828	367.705811
-7439.250532	4078.763667	1624.388672	357.585815
-7439.250532	4078.763667	1623.353516	255.123398
-7439.250532	4078.763667	1622.318359	191.948776
-7439.250532	4078.763667	1621.282227	378.056122
-7439.250532	4078.763667	1620.247070	344.892242
-7439.250532	4078.763667	1619.210938	341.735657
-7439.250532	4078.763667	1618.174805	636.135437
-7439.250532	4078.763667	1617.137695	473.812256
-7439.250532	4078.763667	1616.101563	452.209961
-7439.250532	4078.763667	1615.064453	582.765869
-7439.250532	4078.763667	1614.027344	452.839935
-7439.250532	4078.763667	1612.990234	553.406677
-7439.250532	4078.763667	1611.953125	467.329224
-7439.250532	4078.763667	1610.916016	487.252899
-7439.250532	4078.763667	1609.877930	560.144226
-7439.250532	4078.763667	1608.839844	324.478271
-7439.250532	4078.763667	1607.801758	524.008911
-7439.250532	4078.763667	1606.763672	493.309204
-7439.250532	4078.763667	1605.724609	665.134216
-7439.250532	4078.763667	1604.685547	770.182678
-7439.250532	4078.763667	1603.646484	845.298218
-7439.250532	4078.763667	1602.607422	690.413330
-7439.250532	4078.763667	1601.568359	645.972595
-7439.250532	4078.763667	1600.528320	711.908508
-7439.250532	4078.763667	1599.489258	529.598450
-7439.250532	4078.763667	1598.449219	503.636932
-7439.250532	4078.763667	1597.408203	656.908997
-7439.250532	4078.763667	1596.368164	630.961975
-7439.250532	4078.763667	1595.327148	492.498260
-7439.250532	4078.763667	1594.287109	530.918640
-7439.250532	4078.763667	1593.246094	562.449036
-7439.250532	4078.763667	1592.204102	435.600494
-7439.250532	4078.763667	1591.163086	600.274231
-7439.250532	4078.763667	1590.121094	432.200562
-7439.250532	4078.763667	1589.079102	502.786560
-7439.250532	4078.763667	1588.037109	490.793762
-7439.250532	4078.763667	1586.995117	449.013489
-7439.250532	4078.763667	1585.953125	549.412354
-7439.250532	4078.763667	1584.910156	404.520142
-7439.250532	4078.763667	1583.867188	410.960052
-7439.250532	4078.763667	1582.824219	465.533722
-7439.250532	4078.763667	1581.781250	316.217926
-7439.250532	4078.763667	1580.737305	306.692993
-7439.250532	4078.763667	1579.693359	322.381317
-7439.250532	4078.763667	1578.649414	333.504913
-7439.250532	4078.763667	1577.605469	198.143631
-7439.250532	4078.763667	1576.561523	328.337341
-7439.250532	4078.763667	1575.516602	183.916245
-7439.250532	4078.763667	1574.472656	284.363892
-7439.250532	4078.763667	1573.427734	284.150452
-7439.250532	4078.763667	1572.381836	345.700195
-7439.250532	4078.763667	1571.336914	304.364563
-7439.250532	4078.763667	1570.291016	365.931854
-7439.250532	4078.763667	1569.246094	358.936066
-7439.250532	4078.763667	1568.200195	137.169464
-7439.250532	4078.763667	1567.153320	340.444885
-7439.250532	4078.763667	1566.107422	143.942230
-7439.250532	4078.763667	1565.060547	155.353760
-7439.250532	4078.763667	1564.013672	260.398926
-7439.250532	4078.763667	1562.966797	130.299210
-7439.250532	4078.763667	1561.919922	281.004547
-7439.250532	4078.763667	1560.872070	319.860138
-7439.250532	4078.763667	1559.825195	237.811661
-7439.250532	4078.763667	1558.777344	322.331940
-7439.250532	4078.763667	1557.729492	176.508942
-7439.250532	4078.763667	1556.680664	174.413498
-7439.250532	4078.763667	1555.632813	160.950073
-7439.250532	4078.763667	1554.583984	229.567780
-7439.250532	4078.763667	1553.535156	175.132278
-7439.250532	4078.763667	1552.486328	77.457764
-7439.250532	4078.763667	1551.436523	116.519020
-7439.250532	4078.763667	1550.387695	192.033691
-7439.250532	4078.763667	1549.337891	58.062977
-7439.250532	4078.763667	1548.288086	247.440140
-7439.250532	4078.763667	1547.238281	336.623413
-7439.250532	4078.763667	1546.187500	57.146805
-7439.250532	4078.763667	1545.136719	228.294662
-7439.250532	4078.763667	1544.086914	212.879059
-7439.250532	4078.763667	1543.035156	129.265869
-7439.250532	4078.763667	1541.984375	93.468559
-7439.250532	4078.763667	1540.933594	100.909332
-7439.250532	4078.763667	1539.881836	217.476334
-7439.250532	4078.763667	1538.830078	188.589005
-7439.250532	4078.763667	1537.778320	182.463348
-7439.250532	4078.763667	1536.725586	128.665817
-7439.250532	4078.763667	1535.673828	179.395645
-7439.250532	4078.763667	1534.621094	168.825607
-7439.250532	4078.763667	1533.568359	287.695282
-7439.250532	4078.763667	1532.515625	206.807587
-7439.250532	4078.763667	1531.461914	160.021591
-7439.250532	4078.763667	1530.409180	238.078171
-7439.250532	4078.763667	1529.355469	-53.623985
-7439.250532	4078.763667	1528.301758	133.371307
-7439.250532	4078.763667	1527.247070	73.159081
-7439.250532	4078.763667	1526.193359	8.471657
-7439.250532	4078.763667	1525.138672	88.907158
-7439.250532	4078.763667	1524.083984	192.006622
-7439.250532	4078.763667	1523.029297	20.940577
-7439.250532	4078.763667	1521.974609	96.895706
-7439.250532	4078.763667	1520.918945	89.052162
-7439.250532	4078.763667	1519.863281	110.683746
-7439.250532	4078.763667	1518.807617	150.452194
-7439.250532	4078.763667	1517.751953	104.225327
-7439.250532	4078.763667	1516.696289	153.100418
-7439.250532	4078.763667	1515.639648	-65.001976
-7439.250532	4078.763667	1514.583008	17.887552
-7439.250532	4078.763667	1513.526367	-19.093195
-7439.250532	4078.763667	1512.469727	-53.762947
-7439.250532	4078.763667	1511.412109	-83.863655
-7439.250532	4078.763667	1510.355469	-25.760195
-7439.250532	4078.763667	1509.297852	-1.545425
-7439.250532	4078.763667	1508.240234	-158.064117
-7439.250532	4078.763667	1507.181641	-172.166962
-7439.250532	4078.763667	1506.124023	-82.330978
-7439.250532	4078.763667	1505.065430	63.957714
-7439.250532	4078.763667	1504.006836	67.988457
-7439.250532	4078.763667	1502.948242	-25.008200
-7439.250532	4078.763667	1501.888672	-147.271484
-7439.250532	4078.763667	1500.830078	75.774490
-7439.250532	4078.763667	1499.770508	55.128258
-7439.250532	4078.763667	1498.710938	-100.801376
-7439.250532	4078.763667	1497.650391	18.478912
-7439.250532	4078.763667	1496.590820	38.548603
-7439.250532	4078.763667	1495.530273	-33.773659
-7439.250532	4078.763667	1494.469727	-144.342896
-7439.250532	4078.763667	1493.409180	38.088963
-7439.250532	4078.763667	1492.348633	110.098640
-7439.250532	4078.763667	1491.287109	-49.874561
-7439.250532	4078.763667	1490.225586	-193.984161
-7439.250532	4078.763667	1489.164063	-38.557774
-7439.250532	4078.763667	1488.102539	-175.784821
-7439.250532	4078.763667	1487.041016	-117.122787
-7439.250532	4078.763667	1485.978516	-116.950096
-7439.250532	4078.763667	1484.916016	-127.997597
-7439.250532	4078.763667	1483.853516	13.960303
-7439.250532	4078.763667	1482.791016	-75.730682
-7439.250532	4078.763667	1481.727539	-59.683701
-7439.250532	4078.763667	1480.664063	-99.786018
-7439.250532	4078.763667	1479.600586	44.430145
-7439.250532	4078.763667	1478.537109	24.579523
-7439.250532	4078.763667	1477.473633	-37.833500
-7439.250532	4078.763667	1476.409180	95.139130
-7439.250532	4078.763667	1475.344727	86.640221
-7439.250532	4078.763667	1474.280273	71.440750
-7439.250532	4078.763667	1473.215820	-53.544746
-7439.250532	4078.763667	1472.151367	191.599228
-7439.250532	4078.763667	1471.085938	239.319397
-7439.250532	4078.763667	1470.020508	98.781837
-7439.250532	4078.763667	1468.955078	38.856140
-7439.250532	4078.763667	1467.888672	163.017456
-7439.250532	4078.763667	1466.823242	60.730907
-7439.250532	4078.763667	1465.756836	153.278412
-7439.250532	4078.763667	1464.690430	221.373703
-7439.250532	4078.763667	1463.624023	222.253540
-7439.250532	4078.763667	1462.556641	312.553375
-7439.250532	4078.763667	1461.490234	175.321960
-7439.250532	4078.763667	1460.422852	393.268799
-7439.250532	4078.763667	1459.355469	378.586884
-7439.250532	4078.763667	1458.287109	223.092514
-7439.250532	4078.763667	1457.219727	260.297974
-7439.250532	4078.763667	1456.151367	426.232391
-7439.250532	4078.763667	1455.083008	514.465515
-7439.250532	4078.763667	1454.014648	364.244934
-7439.250532	4078.763667	1452.945313	280.749756
-7439.250532	4078.763667	1451.876953	335.738068
-7439.250532	4078.763667	1450.807617	348.508850
-7439.250532	4078.763667	1449.738281	291.730774
-7439.250532	4078.763667	1448.668945	299.696320
-7439.250532	4078.763667	1447.598633	301.546173
-7439.250532	4078.763667	1446.528320	471.353821
-7439.250532	4078.763667	1445.458008	445.932129
-7439.250532	4078.763667	1444.387695	278.815125
-7439.250532	4078.763667	1443.317383	349.393372
-7439.250532	4078.763667	1442.246094	297.369751
-7439.250532	4078.763667	1441.174805	194.623718
-7439.250532	4078.763667	1440.103516	354.883118
-7439.250532	4078.763667	1439.032227	405.807526
-7439.250532	4078.763667	1437.960938	219.684357
-7439.250532	4078.763667	1436.888672	335.222137
-7439.250532	4078.763667	1435.816406	260.904510
-7439.250532	4078.763667	1434.744141	257.168854
-7439.250532	4078.763667	1433.670898	106.807716
-7439.250532	4078.763667	1432.598633	286.477783
-7439.250532	4078.763667	1431.525391	32.216454
-7439.250532	4078.763667	1430.452148	224.620041
-7439.250532	4078.763667	1429.378906	215.332443
-7439.250532	4078.763667	1428.304688	114.781570
-7439.250532	4078.763667	1427.231445	151.950455
-7439.250532	4078.763667	1426.157227	39.571144
-7439.250532	4078.763667	1425.083008	21.829611
-7439.250532	4078.763667	1424.007813	112.324806
-7439.250532	4078.763667	1422.933594	116.751404
-7439.250532	4078.763667	1421.858398	44.266483
-7439.250532	4078.763667	1420.783203	128.395737
-7439.250532	4078.763667	1419.708008	122.725403
-7439.250532	4078.763667	1418.631836	195.338455
-7439.250532	4078.763667	1417.555664	8.022195
-7439.250532	4078.763667	1416.479492	24.647045
-7439.250532	4078.763667	1415.403320	30.677158
-7439.250532	4078.763667	1414.327148	11.521024
-7439.250532	4078.763667	1413.250000	80.603058
-7439.250532	4078.763667	1412.173828	84.249626
-7439.250532	4078.763667	1411.096680	71.424042
-7439.250532	4078.763667	1410.018555	-87.159958
-7439.250532	4078.763667	1408.941406	-123.882225
-7439.250532	4078.763667	1407.863281	-28.943846
-7439.250532	4078.763667	1406.785156	-5.606656
-7439.250532	4078.763667	1405.707031	65.860085
-7439.250532	4078.763667	1404.628906	33.050869
-7439.250532	4078.763667	1403.549805	61.641327
-7439.250532	4078.763667	1402.470703	77.280136
-7439.250532	4078.763667	1401.391602	119.868439
-7439.250532	4078.763667	1400.312500	46.043694
-7439.250532	4078.763667	1399.233398	124.145020
-7439.250532	4078.763667	1398.153320	143.293945
-7439.250532	4078.763667	1397.073242	34.880249
-7439.250532	4078.763667	1395.993164	101.278664
-7439.250532	4078.763667	1394.913086	172.604675
-7439.250532	4078.763667	1393.832031	-99.718811
-7439.250532	4078.763667	1392.750977	34.554287
-7439.250532	4078.763667	1391.669922	117.377815
-7439.250532	4078.763667	1390.588867	-13.128858
-7439.250532	4078.763667	1389.506836	-48.649658
-7439.250532	4078.763667	1388.425781	-161.908768
-7439.250532	4078.763667	1387.343750	-55.462273
-7439.250532	4078.763667	1386.261719	-106.366493
-7439.250532	4078.763667	1385.178711	15.992580
-7439.250532	4078.763667	1384.096680	-151.368729
-7439.250532	4078.763667	1383.013672	-99.567818
-7439.250532	4078.763667	1381.930664	-78.576164
-7439.250532	4078.763667	1380.846680	59.395603
-7439.250532	4078.763667	1379.763672	118.047722
-7439.250532	4078.763667	1378.679688	163.053482
-7439.250532	4078.763667	1377.595703	80.303612
-7439.250532	4078.763667	1376.511719	298.833466
-7439.250532	4078.763667	1375.427734	45.434307
-7439.250532	4078.763667	1374.342773	24.050381
-7439.250532	4078.763667	1373.257813	290.098206
-7439.250532	4078.763667	1372.172852	17.754286
-7439.250532	4078.763667	1371.087891	229.030502
-7439.250532	4078.763667	1370.001953	176.474762
-7439.250532	4078.763667	1368.916992	186.955780
-7439.250532	4078.763667	1367.831055	112.548607
-7439.250532	4078.763667	1366.744141	158.625595
-7439.250532	4078.763667	1365.658203	202.810211
-7439.250532	4078.763667	1364.571289	192.737701
-7439.250532	4078.763667	1363.484375	217.097336
-7439.250532	4078.763667	1362.397461	250.845825
-7439.250532	4078.763667	1361.310547	187.097641
-7439.250532	4078.763667	1360.222656	273.926697
-7439.250532	4078.763667	1359.135742	250.300949
-7439.250532	4078.763667	1358.047852	247.757233
-7439.250532	4078.763667	1356.958984	452.541382
-7439.250532	4078.763667	1355.871094	325.442078
-7439.250532	4078.763667	1354.782227	241.552399
-7439.250532	4078.763667	1353.693359	269.371002
-7439.250532	4078.763667	1352.604492	289.547943
-7439.250532	4078.763667	1351.515625	324.240173
-7439.250532	4078.763667	1350.425781	272.383545
-7439.250532	4078.763667	1349.335938	190.629471
-7439.250532	4078.763667	1348.246094	280.988403
-7439.250532	4078.763667	1347.156250	211.743713
-7439.250532	4078.763667	1346.066406	296.787170
-7439.250532	4078.763667	1344.975586	187.024948
-7439.250532	4078.763667	1343.884766	307.747040
-7439.250532	4078.763667	1342.793945	208.512711
-7439.250532	4078.763667	1341.702148	327.021606
-7439.250532	4078.763667	1340.611328	286.997498
-7439.250532	4078.763667	1339.519531	455.884949
-7439.250532	4078.763667	1338.427734	348.663879
-7439.250532	4078.763667	1337.334961	349.097870
-7439.250532	4078.763667	1336.243164	397.648468
-7439.250532	4078.763667	1335.150391	306.061554
-7439.250532	4078.763667	1334.057617	380.776947
-7439.250532	4078.763667	1332.964844	296.215668
-7439.250532	4078.763667	1331.871094	301.050659
-7439.250532	4078.763667	1330.778320	397.553802
-7439.250532	4078.763667	1329.684570	438.003845
-7439.250532	4078.763667	1328.590820	550.962097
-7439.250532	4078.763667	1327.496094	280.345154
-7439.250532	4078.763667	1326.402344	306.755432
-7439.250532	4078.763667	1325.307617	386.614746
-7439.250532	4078.763667	1324.212891	333.648499
-7439.250532	4078.763667	1323.117188	341.318695
-7439.250532	4078.763667	1322.022461	328.022583
-7439.250532	4078.763667	1320.926758	299.600555
-7439.250532	4078.763667	1319.831055	169.882919
-7439.250532	4078.763667	1318.735352	203.440643
-7439.250532	4078.763667	1317.638672	286.317322
-7439.250532	4078.763667	1316.542969	366.533661
-7439.250532	4078.763667	1315.446289	268.259247
-7439.250532	4078.763667	1314.349609	306.858978
-7439.250532	4078.763667	1313.251953	158.342834
-7439.250532	4078.763667	1312.155273	243.903320
-7439.250532	4078.763667	1311.057617	142.666611
-7439.250532	4078.763667	1309.959961	200.008835
-7439.250532	4078.763667	1308.862305	76.980949
-7439.250532	4078.763667	1307.763672	193.581192
-7439.250532	4078.763667	1306.665039	97.311661
-7439.250532	4078.763667	1305.566406	48.404938
-7439.250532	4078.763667	1304.467773	74.313339
-7439.250532	4078.763667	1303.369141	49.508224
-7439.250532	4078.763667	1302.269531	112.728104
-7439.250532	4078.763667	1301.169922	77.526810
-7439.250532	4078.763667	1300.070313	200.842972
-7439.250532	4078.763667	1298.970703	142.246597
-7439.250532	4078.763667	1297.870117	158.563126
-7439.250532	4078.763667	1296.769531	50.535332
-7439.250532	4078.763667	1295.668945	83.379692
-7439.250532	4078.763667	1294.568359	164.130569
-7439.250532	4078.763667	1293.466797	200.410751
-7439.250532	4078.763667	1292.366211	138.919022
-7439.250532	4078.763667	1291.264648	103.978935
-7439.250532	4078.763667	1290.162109	236.150238
-7439.250532	4078.763667	1289.060547	205.466156
-7439.250532	4078.763667	1287.958008	142.881119
-7439.250532	4078.763667	1286.855469	4.807358
-7439.250532	4078.763667	1285.752930	96.215248
-7439.250532	4078.763667	1284.650391	31.429689
-7439.250532	4078.763667	1283.546875	120.527100
-7439.250532	4078.763667	1282.444336	203.716019
-7439.250532	4078.763667	1281.339844	91.598404
-7439.250532	4078.763667	1280.236328	83.824623
-7439.250532	4078.763667	1279.132813	169.370026
-7439.250532	4078.763667	1278.028320	62.784672
-7439.250532	4078.763667	1276.923828	81.124832
-7439.250532	4078.763667	1275.819336	142.042068
-7439.250532	4078.763667	1274.713867	141.958984
-7439.250532	4078.763667	1273.608398	90.721916
-7439.250532	4078.763667	1272.503906	272.227509
-7439.250532	4078.763667	1271.397461	-25.558630
-7439.250532	4078.763667	1270.291992	227.249359
-7439.250532	4078.763667	1269.185547	116.424202
-7439.250532	4078.763667	1268.080078	81.376198
-7439.250532	4078.763667	1266.972656	129.526978
-7439.250532	4078.763667	1265.866211	87.657951
-7439.250532	4078.763667	1264.759766	-4.623715
-7439.250532	4078.763667	1263.652344	20.540077
-7439.250532	4078.763667	1262.544922	124.618286
-7439.250532	4078.763667	1261.436523	67.042259
-7439.250532	4078.763667	1260.329102	168.434311
-7439.250532	4078.763667	1259.220703	152.340988
-7439.250532	4078.763667	1258.112305	118.173187
-7439.250532	4078.763667	1257.003906	85.549271
-7439.250532	4078.763667	1255.895508	103.668205
-7439.250532	4078.763667	1254.786133	195.829453
-7439.250532	4078.763667	1253.676758	273.227631
-7439.250532	4078.763667	1252.567383	99.521667
-7439.250532	4078.763667	1251.458008	71.610687
-7439.250532	4078.763667	1250.347656	78.342491
-7439.250532	4078.763667	1249.237305	53.774525
-7439.250532	4078.763667	1248.126953	191.395294
-7439.250532	4078.763667	1247.016602	14.552711
-7439.250532	4078.763667	1245.905273	39.401150
-7439.250532	4078.763667	1244.793945	212.575745
-7439.250532	4078.763667	1243.682617	160.688049
-7439.250532	4078.763667	1242.571289	175.120178
-7439.250532	4078.763667	1241.459961	120.803993
-7439.250532	4078.763667	1240.347656	232.323044
-7439.250532	4078.763667	1239.235352	307.873566
-7439.250532	4078.763667	1238.123047	146.846924
-7439.250532	4078.763667	1237.009766	234.972626
-7439.250532	4078.763667	1235.897461	203.770432
-7439.250532	4078.763667	1234.784180	309.595581
-7439.250532	4078.763667	1233.670898	221.424683
-7439.250532	4078.763667	1232.556641	271.263031
-7439.250532	4078.763667	1231.443359	356.661285
-7439.250532	4078.763667	1230.329102	153.113297
-7439.250532	4078.763667	1229.214844	208.723083
-7439.250532	4078.763667	1228.099609	246.923248
-7439.250532	4078.763667	1226.985352	186.399750
-7439.250532	4078.763667	1225.870117	121.022812
-7439.250532	4078.763667	1224.754883	87.049393
-7439.250532	4078.763667	1223.639648	161.343536
-7439.250532	4078.763667	1222.523438	186.671738
-7439.250532	4078.763667	1221.408203	234.922287
-7439.250532	4078.763667	1220.291992	128.485764
-7439.250532	4078.763667	1219.174805	323.211548
-7439.250532	4078.763667	1218.058594	168.264847
-7439.250532	4078.763667	1216.941406	270.653870
-7439.250532	4078.763667	1215.824219	146.470200
-7439.250532	4078.763667	1214.707031	45.000237
-7439.250532	4078.763667	1213.589844	87.274590
-7439.250532	4078.763667	1212.471680	-9.906693
-7439.250532	4078.763667	1211.353516	-0.708308
-7439.250532	4078.763667	1210.235352	-47.996155
-7439.250532	4078.763667	1209.117188	-61.832901
-7439.250532	4078.763667	1207.998047	-21.999594
-7439.250532	4078.763667	1206.878906	72.240501
-7439.250532	4078.763667	1205.759766	-6.589821
-7439.250532	4078.763667	1204.640625	-184.423828
-7439.250532	4078.763667	1203.520508	-136.796539
-7439.250532	4078.763667	1202.401367	-70.446991
-7439.250532	4078.763667	1201.281250	-155.236572
-7439.250532	4078.763667	1200.160156	-10.905730
-7439.250532	4078.763667	1199.040039	-101.743195
-7439.250532	4078.763667	1197.918945	-134.734467
-7439.250532	4078.763667	1196.797852	-90.193420
-7439.250532	4078.763667	1195.676758	-46.422424
-7439.250532	4078.763667	1194.555664	-85.130608
-7439.250532	4078.763667	1193.433594	-114.169029
-7439.250532	4078.763667	1192.311523	-118.674713
-7439.250532	4078.763667	1191.189453	-52.178055
-7439.250532	4078.763667	1190.066406	-65.547745
-7439.250532	4078.763667	1188.944336	-133.489655
-7439.250532	4078.763667	1187.821289	-118.413902
-7439.250532	4078.763667	1186.698242	-192.557022
-7439.250532	4078.763667	1185.574219	-173.206696
-7439.250532	4078.763667	1184.451172	-193.009567
-7439.250532	4078.763667	1183.327148	-224.385651
-7439.250532	4078.763667	1182.203125	-126.947861
-7439.250532	4078.763667	1181.078125	-70.838928
-7439.250532	4078.763667	1179.954102	-151.419678
-7439.250532	4078.763667	1178.829102	-97.009201
-7439.250532	4078.763667	1177.704102	-12.323345
-7439.250532	4078.763667	1176.579102	-97.203011
-7439.250532	4078.763667	1175.453125	-64.233398
-7439.250532	4078.763667	1174.327148	-103.344650
-7439.250532	4078.763667	1173.201172	-18.383512
-7439.250532	4078.763667	1172.075195	112.581573
-7439.250532	4078.763667	1170.949219	-48.359123
-7439.250532	4078.763667	1169.822266	-25.532106
-7439.250532	4078.763667	1168.695313	35.584751
-7439.250532	4078.763667	1167.568359	6.263370
-7439.250532	4078.763667	1166.440430	31.568790
-7439.250532	4078.763667	1165.313477	-50.154171
-7439.250532	4078.763667	1164.185547	-27.791981
-7439.250532	4078.763667	1163.057617	-37.600220
-7439.250532	4078.763667	1161.928711	53.265873
-7439.250532	4078.763667	1160.800781	-34.524006
-7439.250532	4078.763667	1159.671875	-30.185085
-7439.250532	4078.763667	1158.541992	-55.924000
-7439.250532	4078.763667	1157.413086	-23.047987
-7439.250532	4078.763667	1156.283203	-35.776283
-7439.250532	4078.763667	1155.154297	-123.871597
-7439.250532	4078.763667	1154.023438	-69.356529
-7439.250532	4078.763667	1152.893555	-159.405792
-7439.250532	4078.763667	1151.763672	-110.548729
-7439.250532	4078.763667	1150.632813	-44.941742
-7439.250532	4078.763667	1149.501953	72.016808
-7439.250532	4078.763667	1148.370117	58.118744
-7439.250532	4078.763667	1147.239258	-61.711811
-7439.250532	4078.763667	1146.107422	93.283577
-7439.250532	4078.763667	1144.975586	20.809675
-7439.250532	4078.763667	1143.843750	-6.218486
-7439.250532	4078.763667	1142.710938	81.483505
-7439.250532	4078.763667	1141.578125	42.148792
-7439.250532	4078.763667	1140.445313	-37.080032
-7439.250532	4078.763667	1139.312500	54.817551
-7439.250532	4078.763667	1138.178711	89.707916
-7439.250532	4078.763667	1137.045898	-9.527878
-7439.250532	4078.763667	1135.912109	27.089464
-7439.250532	4078.763667	1134.777344	149.435883
-7439.250532	4078.763667	1133.643555	237.130859
-7439.250532	4078.763667	1132.508789	90.037842
-7439.250532	4078.763667	1131.374023	-33.246536
-7439.250532	4078.763667	1130.239258	40.516056
-7439.250532	4078.763667	1129.104492	222.751923
-7439.250532	4078.763667	1127.968750	28.226686
-7439.250532	4078.763667	1126.833008	-23.375027
-7439.250532	4078.763667	1125.697266	94.200737
-7439.250532	4078.763667	1124.560547	61.998363
-7439.250532	4078.763667	1123.424805	-46.760227
-7439.250532	4078.763667	1122.288086	98.428703
-7439.250532	4078.763667	1121.151367	-8.304312
-7439.250532	4078.763667	1120.013672	47.808674
-7439.250532	4078.763667	1118.876953	-76.595688
-7439.250532	4078.763667	1117.739258	86.234238
-7439.250532	4078.763667	1116.601563	52.373894
-7439.250532	4078.763667	1115.462891	26.652689
-7439.250532	4078.763667	1114.324219	55.834595
-7439.250532	4078.763667	1113.186523	143.976639
-7439.250532	4078.763667	1112.046875	88.139023
-7439.250532	4078.763667	1110.908203	127.753906
-7439.250532	4078.763667	1109.769531	82.992455
-7439.250532	4078.763667	1108.629883	80.415901
-7439.250532	4078.763667	1107.490234	137.904572
-7439.250532	4078.763667	1106.349609	53.390255
-7439.250532	4078.763667	1105.209961	172.069199
-7439.250532	4078.763667	1104.069336	77.420631
-7439.250532	4078.763667	1102.928711	-74.186287
-7439.250532	4078.763667	1101.787109	81.167007
-7439.250532	4078.763667	1100.646484	-60.469082
-7439.250532	4078.763667	1099.504883	111.291748
-7439.250532	4078.763667	1098.363281	-62.356533
-7439.250532	4078.763667	1097.221680	65.415298
-7439.250532	4078.763667	1096.079102	236.300125
-7439.250532	4078.763667	1094.936523	144.724411
-7439.250532	4078.763667	1093.793945	105.063751
-7439.250532	4078.763667	1092.651367	66.429131
-7439.250532	4078.763667	1091.507813	83.518738
-7439.250532	4078.763667	1090.364258	112.127281
-7439.250532	4078.763667	1089.220703	153.934586
-7439.250532	4078.763667	1088.077148	123.948578
-7439.250532	4078.763667	1086.933594	156.149399
-7439.250532	4078.763667	1085.789063	77.312798
-7439.250532	4078.763667	1084.644531	41.910332
-7439.250532	4078.763667	1083.499023	85.331497
-7439.250532	4078.763667	1082.354492	61.938843
-7439.250532	4078.763667	1081.208984	115.293907
-7439.250532	4078.763667	1080.063477	232.891296
-7439.250532	4078.763667	1078.917969	238.344910
-7439.250532	4078.763667	1077.771484	161.667709
-7439.250532	4078.763667	1076.625977	219.833282
-7439.250532	4078.763667	1075.479492	157.879547
-7439.250532	4078.763667	1074.332031	292.012207
-7439.250532	4078.763667	1073.185547	267.680969
-7439.250532	4078.763667	1072.038086	223.193756
-7439.250532	4078.763667	1070.890625	226.175171
-7439.250532	4078.763667	1069.743164	400.872437
-7439.250532	4078.763667	1068.594727	326.899017
-7439.250532	4078.763667	1067.447266	223.771210
-7439.250532	4078.763667	1066.298828	101.039406
-7439.250532	4078.763667	1065.149414	276.002563
-7439.250532	4078.763667	1064.000977	323.959869
-7439.250532	4078.763667	1062.851563	357.748169
-7439.250532	4078.763667	1061.702148	277.908325
-7439.250532	4078.763667	1060.552734	161.751999
-7439.250532	4078.763667	1059.402344	204.768494
-7439.250532	4078.763667	1058.252930	185.856232
-7439.250532	4078.763667	1057.102539	184.916458
-7439.250532	4078.763667	1055.951172	149.059189
-7439.250532	4078.763667	1054.800781	200.883102
-7439.250532	4078.763667	1053.649414	73.805489
-7439.250532	4078.763667	1052.498047	257.197357
-7439.250532	4078.763667	1051.346680	165.516373
-7439.250532	4078.763667	1050.194336	66.710770
-7439.250532	4078.763667	1049.042969	81.828087
-7439.250532	4078.763667	1047.890625	206.301605
-7439.250532	4078.763667	1046.738281	99.137642
-7439.250532	4078.763667	1045.584961	166.826324
-7439.250532	4078.763667	1044.431641	131.976044
-7439.250532	4078.763667	1043.278320	121.330154
-7439.250532	4078.763667	1042.125000	151.365448
-7439.250532	4078.763667	1040.971680	121.554276
-7439.250532	4078.763667	1039.817383	170.755386
-7439.250532	4078.763667	1038.663086	90.172928
-7439.250532	4078.763667	1037.508789	155.964828
-7439.250532	4078.763667	1036.353516	204.586945
-7439.250532	4078.763667	1035.198242	271.115570
-7439.250532	4078.763667	1034.042969	160.777451
-7439.250532	4078.763667	1032.887695	206.251541
-7439.250532	4078.763667	1031.732422	249.601501
-7439.250532	4078.763667	1030.576172	125.099571
-7439.250532	4078.763667	1029.419922	234.060837
-7439.250532	4078.763667	1028.263672	252.918152
-7439.250532	4078.763667	1027.106445	247.627274
-7439.250532	4078.763667	1025.949219	99.454544
-7439.250532	4078.763667	1024.792969	210.599869
-7439.250532	4078.763667	1023.634766	97.304649
-7439.250532	4078.763667	1022.477539	90.077446
-7439.250532	4078.763667	1021.319336	134.511200
-7439.250532	4078.763667	1020.161133	116.782417
-7439.250532	4078.763667	1019.002930	83.591507
-7439.250532	4078.763667	1017.843750	-56.086750
-7439.250532	4078.763667	1016.684570	156.401703
-7439.250532	4078.763667	1015.525391	-31.990744
-7439.250532	4078.763667	1014.366211	-76.625214
-7439.250532	4078.763667	1013.207031	4.725570
-7439.250532	4078.763667	1012.046875	49.063683
-7439.250532	4078.763667	1010.886719	7.995386
-7439.250532	4078.763667	1009.726563	109.696198
-7439.250532	4078.763667	1008.565430	33.134472
-7439.250532	4078.763667	1007.404297	-82.647461
-7439.250532	4078.763667	1006.243164	67.377480
-7439.250532	4078.763667	1005.082031	21.147488
-7439.250532	4078.763667	1003.920898	84.685257
-7439.250532	4078.763667	1002.758789	-10.878772
-7439.250532	4078.763667	1001.596680	38.648632
-7439.250532	4078.763667	1000.433594	196.892044
-7439.250532	4078.763667	999.271484	0.857846
-7439.250532	4078.763667	998.108398	-48.905224
-7439.250532	4078.763667	996.945313	-156.825500
-7439.250532	4078.763667	995.782227	88.920471
-7439.250532	4078.763667	994.618164	77.410378
-7439.250532	4078.763667	993.454102	194.389236
-7439.250532	4078.763667	992.290039	38.072098
-7439.250532	4078.763667	991.125977	158.145721
-7439.250532	4078.763667	989.960938	75.334229
-7439.250532	4078.763667	988.796875	188.572815
-7439.250532	4078.763667	987.630859	189.753677
-7439.250532	4078.763667	986.465820	-16.965652
-7439.250532	4078.763667	985.300781	-131.576843
-7439.250532	4078.763667	984.134766	-24.621880
-7439.250532	4078.763667	982.968750	28.153067
-7439.250532	4078.763667	981.801758	-38.056210
-7439.250532	4078.763667	980.635742	34.943329
-7439.250532	4078.763667	979.468750	21.330647
-7439.250532	4078.763667	978.301758	-123.014915
-7439.250532	4078.763667	977.133789	46.431519
-7439.250532	4078.763667	975.966797	143.792694
-7439.250532	4078.763667	974.798828	14.438465
-7439.250532	4078.763667	973.630859	77.719864
-7439.250532	4078.763667	972.461914	63.722790
-7439.250532	4078.763667	971.293945	-33.474930
-7439.250532	4078.763667	970.125000	-11.351591
-7439.250532	4078.763667	968.956055	38.445293
-7439.250532	4078.763667	967.786133	-70.743980
-7439.250532	4078.763667	966.617188	-82.858681
-7439.250532	4078.763667	965.447266	40.764977
-7439.250532	4078.763667	964.276367	-22.352789
-7439.250532	4078.763667	963.106445	-26.571171
-7439.250532	4078.763667	961.935547	-13.985174
-7439.250532	4078.763667	960.764648	-42.422985
-7439.250532	4078.763667	959.593750	-57.533337
-7439.250532	4078.763667	958.422852	120.616577
-7439.250532	4078.763667	957.250977	-42.578751
-7439.250532	4078.763667	956.079102	53.257069
-7439.250532	4078.763667	954.907227	89.567101
-7439.250532	4078.763667	953.734375	-37.987091
-7439.250532	4078.763667	952.562500	-71.709053
-7439.250532	4078.763667	951.389648	-134.178162
-7439.250532	4078.763667	950.215820	-19.113001
-7439.250532	4078.763667	949.042969	-87.412827
-7439.250532	4078.763667	947.869141	27.407921
-7439.250532	4078.763667	946.695313	-88.787567
-7439.250532	4078.763667	945.521484	-54.272552
-7439.250532	4078.763667	944.346680	36.219521
-7439.250532	4078.763667	943.172852	-31.027067
-7439.250532	4078.763667	941.998047	41.928352
-7439.250532	4078.763667	940.822266	28.972181
-7439.250532	4078.763667	939.647461	-19.986807
-7439.250532	4078.763667	938.471680	68.249390
-7439.250532	4078.763667	937.295898	-63.687042
-7439.250532	4078.763667	936.119141	63.030533
-7439.250532	4078.763667	934.943359	59.060852
-7439.250532	4078.763667	933.766602	8.018433
-7439.250532	4078.763667	932.589844	-101.556831
-7439.250532	4078.763667	931.413086	49.836674
-7439.250532	4078.763667	930.235352	-3.547178
-7439.250532	4078.763667	929.057617	19.595161
-7439.250532	4078.763667	927.879883	128.173004
-7439.250532	4078.763667	926.702148	133.335922
-7439.250532	4078.763667	925.523438	120.499397
-7439.250532	4078.763667	924.344727	154.859543
-7439.250532	4078.763667	923.166016	38.675762
-7439.250532	4078.763667	921.987305	102.262642
-7439.250532	4078.763667	920.807617	-83.484329
-7439.250532	4078.763667	919.627930	-83.641541
-7439.250532	4078.763667	919.497070	130.544159
-7439.250532	4078.763667	918.331055	57.136955
-7439.250532	4078.763667	917.165039	17.435337
-7439.250532	4078.763667	915.999023	-123.232948
-7439.250532	4078.763667	914.833008	-21.513794
-7439.250532	4078.763667	913.666016	24.087444
-7439.250532	4078.763667	912.499023	58.462578
-7439.250532	4078.763667	911.332031	14.346572
-7439.250532	4078.763667	910.165039	95.802513
-7439.250532	4078.763667	908.997070	-55.880512
-7439.250532	4078.763667	907.830078	-84.239372
-7439.250532	4078.763667	906.661133	-13.995849
-7439.250532	4078.763667	905.493164	109.988037
-7439.250532	4078.763667	904.325195	146.582428
-7439.250532	4078.763667	903.156250	-27.314703
-7439.250532	4078.763667	901.987305	22.739180
-7439.250532	4078.763667	900.818359	-30.180655
-7439.250532	4078.763667	899.648438	102.667053
-7439.250532	4078.763667	898.478516	40.817566
-7439.250532	4078.763667	897.308594	-16.525425
-7439.250532	4078.763667	896.138672	165.462357
-7439.250532	4078.763667	894.968750	90.244370
-7439.250532	4078.763667	893.797852	-13.997204
-7439.250532	4078.763667	892.626953	-8.670008
-7439.250532	4078.763667	891.456055	30.182556
-7439.250532	4078.763667	890.284180	-80.662575
-7439.250532	4078.763667	889.113281	114.564133
-7439.250532	4078.763667	887.941406	99.792961
-7439.250532	4078.763667	886.768555	223.469284
-7439.250532	4078.763667	885.596680	117.171684
-7439.250532	4078.763667	884.423828	180.549225
-7439.250532	4078.763667	883.250977	52.006172
-7439.250532	4078.763667	882.078125	99.770599
-7439.250532	4078.763667	880.905273	111.835220
-7439.250532	4078.763667	879.731445	-110.253464
-7439.250532	4078.763667	878.557617	11.116789
-7439.250532	4078.763667	877.383789	56.654018
-7439.250532	4078.763667	876.209961	162.355804
-7439.250532	4078.763667	875.035156	16.232038
-7439.250532	4078.763667	873.860352	101.865646
-7439.250532	4078.763667	872.685547	102.834267
-7439.250532	4078.763667	871.510742	-152.279083
-7439.250532	4078.763667	870.334961	-4.298949
-7439.250532	4078.763667	869.159180	90.206657
-7439.250532	4078.763667	867.983398	-60.123596
-7439.250532	4078.763667	866.807617	116.697601
-7439.250532	4078.763667	865.630859	62.097656
-7439.250532	4078.763667	864.454102	69.804428
-7439.250532	4078.763667	863.277344	133.108429
-7439.250532	4078.763667	862.100586	5.197629
-7439.250532	4078.763667	860.922852	32.941853
-7439.250532	4078.763667	859.745117	18.458557
-7439.250532	4078.763667	858.567383	-33.781578
-7439.250532	4078.763667	857.389648	136.148178
-7439.250532	4078.763667	856.210938	75.038055
-7439.250532	4078.763667	855.032227	60.591927
-7439.250532	4078.763667	853.853516	3.979173
-7439.250532	4078.763667	852.674805	-32.625927
-7439.250532	4078.763667	851.495117	68.377930
-7439.250532	4078.763667	850.315430	0.730187
-7439.250532	4078.763667	849.135742	-71.318710
-7439.250532	4078.763667	847.956055	14.131084
-7439.250532	4078.763667	846.775391	-31.266371
-7439.250532	4078.763667	845.595703	-47.818851
-7439.250532	4078.763667	844.415039	-46.625423
-7439.250532	4078.763667	843.233398	-96.390228
-7439.250532	4078.763667	842.052734	-70.801468
-7439.250532	4078.763667	840.871094	-18.634430
-7439.250532	4078.763667	839.689453	31.303844
-7439.250532	4078.763667	838.506836	-2.906290
-7439.250532	4078.763667	837.325195	16.032259
-7439.250532	4078.763667	836.142578	-73.475594
-7439.250532	4078.763667	834.959961	-70.004005
-7439.250532	4078.763667	833.777344	-6.795239
-7439.250532	4078.763667	832.593750	-144.880753
-7439.250532	4078.763667	831.410156	44.380608
-7439.250532	4078.763667	830.226563	-75.957542
-7439.250532	4078.763667	829.042969	150.803925
-7439.250532	4078.763667	827.858398	112.278114
-7439.250532	4078.763667	826.673828	-36.702465
-7439.250532	4078.763667	825.489258	-33.187225
-7439.250532	4078.763667	824.304688	80.765129
-7439.250532	4078.763667	823.120117	-103.428017
-7439.250532	4078.763667	821.934570	-80.011955
-7439.250532	4078.763667	820.749023	-142.683014
-7439.250532	4078.763667	819.562500	70.531288
-7439.250532	4078.763667	818.376953	38.756447
-7439.250532	4078.763667	817.190430	-127.559029
-7439.250532	4078.763667	816.003906	6.141435
-7439.250532	4078.763667	814.817383	-34.402054
-7439.250532	4078.763667	813.629883	-119.013863
-7439.250532	4078.763667	812.442383	-97.789307
-7439.250532	4078.763667	811.254883	-34.698719
-7439.250532	4078.763667	810.067383	-99.413132
-7439.250532	4078.763667	808.878906	-113.432693
-7439.250532	4078.763667	807.690430	-94.407906
-7439.250532	4078.763667	806.501953	54.520947
-7439.250532	4078.763667	805.313477	93.325417
-7439.250532	4078.763667	804.124023	66.091782
-7439.250532	4078.763667	802.934570	93.884857
-7439.250532	4078.763667	801.745117	22.671274
-7439.250532	4078.763667	800.555664	32.873749
-7439.250532	4078.763667	799.365234	-3.103551
-7439.250532	4078.763667	798.175781	48.881756
-7439.250532	4078.763667	796.985352	39.301250
-7439.250532	4078.763667	795.793945	-12.027831
-7439.250532	4078.763667	794.603516	22.360598
-7439.250532	4078.763667	793.412109	-31.133648
-7439.250532	4078.763667	792.220703	-34.086933
-7439.250532	4078.763667	791.028320	-21.664412
-7439.250532	4078.763667	789.836914	-13.635380
-7439.250532	4078.763667	788.644531	49.268158
-7439.250532	4078.763667	787.452148	72.646584
-7439.250532	4078.763667	786.258789	43.360123
-7439.250532	4078.763667	785.066406	-110.948914
-7439.250532	4078.763667	783.873047	61.590019
-7439.250532	4078.763667	782.679688	34.522598
-7439.250532	4078.763667	781.485352	66.659744
-7439.250532	4078.763667	780.291992	35.221863
-7439.250532	4078.763667	779.097656	-37.836502
-7439.250532	4078.763667	777.903320	-60.472618
-7439.250532	4078.763667	776.708008	98.707443
-7439.250532	4078.763667	775.512695	-64.104164
-7439.250532	4078.763667	774.318359	-174.299789
-7439.250532	4078.763667	773.122070	-93.999535
-7439.250532	4078.763667	771.926758	-70.636864
-7439.250532	4078.763667	770.730469	-158.878830
-7439.250532	4078.763667	769.534180	-43.628502
-7439.250532	4078.763667	768.337891	-9.354336
-7439.250532	4078.763667	767.141602	129.871231
-7439.250532	4078.763667	765.944336	118.181374
-7439.250532	4078.763667	764.747070	51.848305
-7439.250532	4078.763667	763.549805	51.104755
-7439.250532	4078.763667	762.351563	137.759689
-7439.250532	4078.763667	761.154297	-68.349327
-7439.250532	4078.763667	759.956055	-128.040695
-7439.250532	4078.763667	758.757813	65.589134
-7439.250532	4078.763667	757.558594	149.979492
-7439.250532	4078.763667	756.359375	31.341068
-7439.250532	4078.763667	755.160156	-4.324369
-7439.250532	4078.763667	753.960938	-11.614660
-7439.250532	4078.763667	752.761719	22.540812
-7439.250532	4078.763667	751.561523	8.700018
-7439.250532	4078.763667	750.361328	3.583911
-7439.250532	4078.763667	749.160156	22.446749
-7439.250532	4078.763667	747.959961	206.941086
-7439.250532	4078.763667	746.758789	354.310974
-7439.250532	4078.763667	745.557617	113.823250
-7439.250532	4078.763667	744.356445	123.919662
-7439.250532	4078.763667	743.154297	-46.740780
-7439.250532	4078.763667	741.952148	24.339756
-7439.250532	4078.763667	740.750000	19.198200
-7439.250532	4078.763667	739.547852	11.877834
-7439.250532	4078.763667	738.344727	28.490799
-7439.250532	4078.763667	737.142578	-102.838120
-7439.250532	4078.763667	735.939453	-1.394708
-7439.250532	4078.763667	734.735352	36.940472
-7439.250532	4078.763667	733.532227	60.034420
-7439.250532	4078.763667	732.328125	7.037853
-7439.250532	4078.763667	731.124023	1.866120
-7439.250532	4078.763667	729.918945	109.671379
-7439.250532	4078.763667	728.714844	182.669312
-7439.250532	4078.763667	727.509766	131.837738
-7439.250532	4078.763667	726.303711	72.336647
-7439.250532	4078.763667	725.098633	240.795319
-7439.250532	4078.763667	723.892578	202.985977
-7439.250532	4078.763667	722.686523	149.995911
-7439.250532	4078.763667	721.480469	114.376228
-7439.250532	4078.763667	720.274414	180.710754
-7439.250532	4078.763667	719.067383	49.665768
-7439.250532	4078.763667	717.860352	40.084934
-7439.250532	4078.763667	716.653320	-84.387856
-7439.250532	4078.763667	715.445313	-0.760652
-7439.250532	4078.763667	714.238281	121.825455
-7439.250532	4078.763667	713.030273	90.541534
-7439.250532	4078.763667	711.821289	241.197495
-7439.250532	4078.763667	710.613281	79.958420
-7439.250532	4078.763667	709.404297	63.831783
-7439.250532	4078.763667	708.195313	-51.865059
-7439.250532	4078.763667	706.986328	3.439538
-7439.250532	4078.763667	705.776367	26.257032
-7439.250532	4078.763667	704.566406	29.587421
-7439.250532	4078.763667	703.356445	104.276291
-7439.250532	4078.763667	702.146484	31.890898
-7439.250532	4078.763667	700.935547	-116.136902
-7439.250532	4078.763667	699.724609	68.734924
-7439.250532	4078.763667	698.513672	35.268959
-7439.250532	4078.763667	697.302734	32.053478
-7439.250532	4078.763667	696.090820	2.908985
-7439.250532	4078.763667	694.878906	8.318962
-7439.250532	4078.763667	693.666992	7.239369
-7439.250532	4078.763667	692.455078	-30.547169
-7439.250532	4078.763667	691.242188	-48.904743
-7439.250532	4078.763667	690.029297	53.566685
-7439.250532	4078.763667	688.816406	-5.810214
-7439.250532	4078.763667	687.602539	68.549194
-7439.250532	4078.763667	686.389648	244.214676
-7439.250532	4078.763667	685.175781	169.711014
-7439.250532	4078.763667	683.960938	239.642639
-7439.250532	4078.763667	682.747070	156.528595
-7439.250532	4078.763667	681.532227	293.201752
-7439.250532	4078.763667	680.317383	330.717987
-7439.250532	4078.763667	679.102539	439.276947
-7439.250532	4078.763667	677.886719	293.703522
-7439.250532	4078.763667	676.670898	320.398315
-7439.250532	4078.763667	675.455078	269.587860
-7439.250532	4078.763667	674.239258	203.724808
-7439.250532	4078.763667	673.022461	105.607552
-7439.250532	4078.763667	671.805664	170.989365
-7439.250532	4078.763667	670.588867	229.880478
-7439.250532	4078.763667	669.372070	99.534805
-7439.250532	4078.763667	668.154297	201.384048
-7439.250532	4078.763667	666.936523	139.846573
-7439.250532	4078.763667	665.718750	50.391613
-7439.250532	4078.763667	664.500977	89.853653
-7439.250532	4078.763667	663.282227	84.185394
-7439.250532	4078.763667	662.063477	153.662659
-7439.250532	4078.763667	660.844727	32.030117
-7439.250532	4078.763667	659.625000	2.732143
-7439.250532	4078.763667	658.405273	151.547058
-7439.250532	4078.763667	657.185547	87.885536
-7439.250532	4078.763667	655.965820	114.329666
-7439.250532	4078.763667	654.745117	183.643158
-7439.250532	4078.763667	653.525391	12.774306
-7439.250532	4078.763667	652.303711	17.747057
-7439.250532	4078.763667	651.083008	106.291023
-7439.250532	4078.763667	649.861328	173.358841
-7439.250532	4078.763667	648.640625	69.002930
-7439.250532	4078.763667	647.417969	-46.029724
-7439.250532	4078.763667	646.196289	1.721574
-7439.250532	4078.763667	644.973633	-53.323776
-7439.250532	4078.763667	643.750977	133.519440
-7439.250532	4078.763667	642.528320	-5.013795
-7439.250532	4078.763667	641.305664	-115.684616
-7439.250532	4078.763667	640.082031	158.725266
-7439.250532	4078.763667	638.858398	-9.699002
-7439.250532	4078.763667	637.634766	-9.141837
-7439.250532	4078.763667	636.410156	49.124294
-7439.250532	4078.763667	635.185547	-16.608849
-7439.250532	4078.763667	633.960938	-11.807913
-7439.250532	4078.763667	632.736328	14.346099
-7439.250532	4078.763667	631.510742	160.092926
-7439.250532	4078.763667	630.285156	-63.675514
-7439.250532	4078.763667	629.059570	71.331963
-7439.250532	4078.763667	627.833984	112.349899
-7439.250532	4078.763667	626.607422	46.633667
-7439.250532	4078.763667	625.380859	177.237335
-7439.250532	4078.763667	624.154297	117.917442
-7439.250532	4078.763667	622.927734	280.425171
-7439.250532	4078.763667	621.700195	293.591553
-7439.250532	4078.763667	620.472656	168.170898
-7439.250532	4078.763667	619.245117	219.704956
-7439.250532	4078.763667	618.016602	228.590179
-7439.250532	4078.763667	616.788086	143.720093
-7439.250532	4078.763667	615.559570	144.082230
-7439.250532	4078.763667	614.331055	23.048399
-7439.250532	4078.763667	613.101563	172.464798
-7439.250532	4078.763667	611.872070	-23.043091
-7439.250532	4078.763667	610.642578	60.330658
-7439.250532	4078.763667	609.413086	111.744995
-7439.250532	4078.763667	608.182617	-45.350384
-7439.250532	4078.763667	606.952148	-36.485210
-7439.250532	4078.763667	605.721680	-55.272495
-7439.250532	4078.763667	604.491211	-44.293007
-7439.250532	4078.763667	603.259766	-12.067252
-7439.250532	4078.763667	602.028320	71.143127
-7439.250532	4078.763667	600.796875	-22.032658
-7439.250532	4078.763667	599.564453	-47.198116
-7439.250532	4078.763667	598.332031	-44.747189
-7439.250532	4078.763667	597.099609	-38.054558
-7439.250532	4078.763667	595.867188	-95.052528
-7439.250532	4078.763667	594.633789	-58.643417
-7439.250532	4078.763667	593.400391	-105.008247
-7439.250532	4078.763667	592.166992	31.093544
-7439.250532	4078.763667	590.933594	65.325874
-7439.250532	4078.763667	589.699219	-190.978714
-7439.250532	4078.763667	588.464844	48.937283
-7439.250532	4078.763667	587.230469	-39.800812
-7439.250532	4078.763667	585.995117	11.368101
-7439.250532	4078.763667	584.760742	-159.956390
-7439.250532	4078.763667	583.525391	-159.622681
-7439.250532	4078.763667	582.289063	-42.805206
-7439.250532	4078.763667	581.053711	-55.198799
-7439.250532	4078.763667	579.817383	-40.065407
-7439.250532	4078.763667	578.581055	21.627382
-7439.250532	4078.763667	577.343750	-39.436268
-7439.250532	4078.763667	576.107422	75.125946
-7439.250532	4078.763667	574.870117	98.690308
-7439.250532	4078.763667	573.631836	221.639023
-7439.250532	4078.763667	572.394531	37.971111
-7439.250532	4078.763667	571.156250	57.311882
-7439.250532	4078.763667	569.917969	19.588270
-7439.250532	4078.763667	568.679688	-39.243275
-7439.250532	4078.763667	567.440430	70.952637
-7439.250532	4078.763667	566.202148	39.603191
-7439.250532	4078.763667	564.961914	170.863297
-7439.250532	4078.763667	563.722656	156.407440
-7439.250532	4078.763667	562.482422	108.194046
-7439.250532	4078.763667	561.243164	190.842133
-7439.250532	4078.763667	560.001953	-17.684221
-7439.250532	4078.763667	558.761719	98.720551
-7439.250532	4078.763667	557.520508	56.920189
-7439.250532	4078.763667	556.279297	44.664330
-7439.250532	4078.763667	555.038086	262.190186
-7439.250532	4078.763667	553.795898	201.442307
-7439.250532	4078.763667	552.554688	258.726166
-7439.250532	4078.763667	551.311523	179.066986
-7439.250532	4078.763667	550.069336	196.335815
-7439.250532	4078.763667	548.826172	217.820328
-7439.250532	4078.763667	547.583984	277.202362
-7439.250532	4078.763667	546.339844	254.483826
-7439.250532	4078.763667	545.096680	76.066399
-7439.250532	4078.763667	543.852539	101.815948
-7439.250532	4078.763667	542.608398	37.120174
-7439.250532	4078.763667	541.364258	102.851997
-7439.250532	4078.763667	540.119141	-20.659670
-7439.250532	4078.763667	538.875000	76.616928
-7439.250532	4078.763667	537.628906	131.833344
-7439.250532	4078.763667	536.383789	237.470566
-7439.250532	4078.763667	535.137695	9.059628
-7439.250532	4078.763667	533.892578	70.603828
-7439.250532	4078.763667	532.645508	157.335922
-7439.250532	4078.763667	531.399414	38.307014
-7439.250532	4078.763667	530.152344	62.074585
-7439.250532	4078.763667	528.905273	24.992935
-7439.250532	4078.763667	527.658203	97.043320
-7439.250532	4078.763667	526.410156	95.665070
-7439.250532	4078.763667	525.163086	39.780190
-7439.250532	4078.763667	523.914063	46.838955
-7439.250532	4078.763667	522.666016	227.901871
-7439.250532	4078.763667	521.416992	-102.467575
-7439.250532	4078.763667	520.167969	26.204369
-7439.250532	4078.763667	518.918945	-58.837933
-7439.250532	4078.763667	517.669922	-47.479519
-7439.250532	4078.763667	516.419922	110.473862
-7439.250532	4078.763667	515.169922	-70.774643
-7439.250532	4078.763667	513.919922	175.067123
-7439.250532	4078.763667	512.668945	31.591852
-7439.250532	4078.763667	511.417969	82.773598
-7439.250532	4078.763667	510.166992	10.541192
-7439.250532	4078.763667	508.916016	-145.290802
-7439.250532	4078.763667	507.664063	-37.587681
-7439.250532	4078.763667	506.412109	-84.598686
-7439.250532	4078.763667	505.160156	85.786583
-7439.250532	4078.763667	503.907227	61.796581
-7439.250532	4078.763667	502.655273	-77.059158
-7439.250532	4078.763667	501.402344	-140.643631
-7439.250532	4078.763667	500.148438	132.013412
-7439.250532	4078.763667	498.895508	-131.964905
-7439.250532	4078.763667	497.641602	11.206420
-7439.250532	4078.763667	496.387695	-71.037094
-7439.250532	4078.763667	495.132813	-48.906002
-7439.250532	4078.763667	493.878906	6.610796
-7439.250532	4078.763667	492.624023	-4.608903
-7439.250532	4078.763667	491.368164	-138.817673
-7439.250532	4078.763667	490.113281	-172.890350
-7439.250532	4078.763667	488.857422	7.736451
-7439.250532	4078.763667	487.601563	34.114639
-7439.250532	4078.763667	486.344727	-149.901962
-7439.250532	4078.763667	485.088867	-173.447678
-7439.250532	4078.763667	483.832031	-119.918144
-7439.250532	4078.763667	482.575195	-62.228409
-7439.250532	4078.763667	481.317383	51.653507
-7439.250532	4078.763667	480.059570	-65.482964
-7439.250532	4078.763667	478.801758	77.514038
-7439.250532	4078.763667	477.543945	-74.903877
-7439.250532	4078.763667	476.285156	-35.913792
-7439.250532	4078.763667	475.027344	0.995935
-7439.250532	4078.763667	473.767578	94.031944
-7439.250532	4078.763667	472.508789	51.953560
-7439.250532	4078.763667	471.249023	88.866066
-7439.250532	4078.763667	469.989258	-40.414669
-7439.250532	4078.763667	468.729492	71.296600
-7439.250532	4078.763667	467.469727	-113.965828
-7439.250532	4078.763667	466.208984	-8.491581
-7439.250532	4078.763667	464.948242	11.847499
-7439.250532	4078.763667	463.686523	-34.216820
-7439.250532	4078.763667	462.425781	-55.357601
-7439.250532	4078.763667	461.164063	6.487722
-7439.250532	4078.763667	459.901367	1.951340
-7439.250532	4078.763667	458.639648	-66.853371
-7439.250532	4078.763667	457.376953	69.592567
-7439.250532	4078.763667	456.114258	54.692802
-7439.250532	4078.763667	454.851563	12.864450
-7439.250532	4078.763667	453.587891	-86.949692
-7439.250532	4078.763667	452.324219	78.378456
-7439.250532	4078.763667	451.060547	-6.918240
-7439.250532	4078.763667	449.796875	143.820740
-7439.250532	4078.763667	448.532227	232.395386
-7439.250532	4078.763667	447.267578	12.595140
-7439.250532	4078.763667	446.002930	51.488071
-7439.250532	4078.763667	444.737305	-0.658297
-7439.250532	4078.763667	443.471680	226.380371
-7439.250532	4078.763667	442.206055	128.703186
-7439.250532	4078.763667	440.940430	-72.304176
-7439.250532	4078.763667	439.673828	7.817843
-7439.250532	4078.763667	438.407227	87.882698
-7439.250532	4078.763667	437.140625	33.615200
-7439.250532	4078.763667	435.873047	20.650406
-7439.250532	4078.763667	434.605469	152.200043
-7439.250532	4078.763667	433.337891	163.926163
-7439.250532	4078.763667	432.070313	35.264198
-7439.250532	4078.763667	430.801758	40.748688
-7439.250532	4078.763667	429.533203	229.802551
-7439.250532	4078.763667	428.264648	224.845795
-7439.250532	4078.763667	426.996094	129.110901
-7439.250532	4078.763667	425.726563	86.973213
-7439.250532	4078.763667	424.457031	69.537056
-7439.250532	4078.763667	423.186523	254.013458
-7439.250532	4078.763667	421.916992	254.978012
-7439.250532	4078.763667	420.646484	144.644287
-7439.250532	4078.763667	419.375977	223.764832
-7439.250532	4078.763667	418.104492	193.653091
-7439.250532	4078.763667	416.833008	202.594727
-7439.250532	4078.763667	415.561523	162.060547
-7439.250532	4078.763667	414.290039	205.828415
-7439.250532	4078.763667	413.017578	29.366903
-7439.250532	4078.763667	411.746094	223.117355
-7439.250532	4078.763667	410.472656	87.673203
-7439.250532	4078.763667	409.200195	196.843613
-7439.250532	4078.763667	407.926758	157.871140
-7439.250532	4078.763667	406.653320	149.633804
-7439.250532	4078.763667	405.379883	133.069763
-7439.250532	4078.763667	404.105469	188.290771
-7439.250532	4078.763667	402.831055	126.306038
-7439.250532	4078.763667	401.556641	185.362473
-7439.250532	4078.763667	400.282227	229.891403
-7439.250532	4078.763667	399.006836	251.687225
-7439.250532	4078.763667	397.731445	142.009521
-7439.250532	4078.763667	396.456055	63.002117
-7439.250532	4078.763667	395.179688	145.902496
-7439.250532	4078.763667	393.903320	144.533112
-7439.250532	4078.763667	392.626953	97.895271
-7439.250532	4078.763667	391.350586	79.800217
-7439.250532	4078.763667	390.073242	227.518494
-7439.250532	4078.763667	388.795898	41.036060
-7439.250532	4078.763667	387.518555	163.739349
-7439.250532	4078.763667	386.240234	-98.814392
-7439.250532	4078.763667	384.961914	99.212288
-7439.250532	4078.763667	383.683594	-26.486046
-7439.250532	4078.763667	382.405273	23.651707
-7439.250532	4078.763667	381.125977	214.716644
-7439.250532	4078.763667	379.846680	4.512455
-7439.250532	4078.763667	378.567383	33.444477
-7439.250532	4078.763667	377.287109	162.301437
-7439.250532	4078.763667	376.006836	225.422195
-7439.250532	4078.763667	374.726563	77.725708
-7439.250532	4078.763667	373.446289	5.421726
-7439.250532	4078.763667	372.165039	-28.325619
-7439.250532	4078.763667	370.883789	92.878242
-7439.250532	4078.763667	369.602539	-102.801926
-7439.250532	4078.763667	368.320313	-65.969398
-7439.250532	4078.763667	367.039063	1.145493
-7439.250532	4078.763667	365.755859	20.947514
-7439.250532	4078.763667	364.473633	-10.607250
-7439.250532	4078.763667	363.190430	100.281288
-7439.250532	4078.763667	361.907227	0.693952
-7439.250532	4078.763667	360.624023	37.384396
-7439.250532	4078.763667	359.340820	140.942978
-7439.250532	4078.763667	358.056641	36.163876
-7439.250532	4078.763667	356.772461	-79.169220
-7439.250532	4078.763667	355.487305	116.810501
-7439.250532	4078.763667	354.202148	0.644175
-7439.250532	4078.763667	352.916992	-20.211344
-7439.250532	4078.763667	351.631836	-43.553326
-7439.250532	4078.763667	350.346680	138.221588
-7439.250532	4078.763667	349.060547	128.133530
-7439.250532	4078.763667	347.774414	-104.214890
-7439.250532	4078.763667	346.487305	10.847002
-7439.250532	4078.763667	345.200195	19.582666
-7439.250532	4078.763667	343.913086	-94.219795
-7439.250532	4078.763667	342.625977	-33.708080
-7439.250532	4078.763667	341.338867	-77.440323
-7439.250532	4078.763667	340.050781	-36.410873
-7439.250532	4078.763667	338.762695	87.290848
-7439.250532	4078.763667	337.473633	51.891640
-7439.250532	4078.763667	336.184570	-144.537460
-7439.250532	4078.763667	334.895508	-30.920294
-7439.250532	4078.763667	333.606445	4.856650
-7439.250532	4078.763667	332.317383	58.201000
-7439.250532	4078.763667	331.027344	-2.803103
-7439.250532	4078.763667	329.736328	22.707279
-7439.250532	4078.763667	328.446289	61.685184
-7439.250532	4078.763667	327.155273	-40.015839
-7439.250532	4078.763667	325.864258	-170.820313
-7439.250532	4078.763667	324.573242	74.587646
-7439.250532	4078.763667	323.281250	-134.791336
-7439.250532	4078.763667	321.989258	86.566193
-7439.250532	4078.763667	320.697266	-33.260750
-7439.250532	4078.763667	319.405273	80.975945
-7439.250532	4078.763667	318.112305	58.622089
-7439.250532	4078.763667	316.819336	-37.491661
-7439.250532	4078.763667	315.526367	-53.553322
-7439.250532	4078.763667	314.232422	-104.974182
-7439.250532	4078.763667	312.938477	26.710119
-7439.250532	4078.763667	311.644531	-34.763771
-7439.250532	4078.763667	310.349609	-38.624985
-7439.250532	4078.763667	309.054688	49.450722
-7439.250532	4078.763667	307.759766	-43.431549
-7439.250532	4078.763667	306.464844	-60.587498
-7439.250532	4078.763667	305.168945	54.436428
-7439.250532	4078.763667	303.873047	67.295082
-7439.250532	4078.763667	302.577148	-17.931013
-7439.250532	4078.763667	301.281250	244.910538
-7439.250532	4078.763667	299.984375	181.461914
