#X		#Y		#Wave		#Intensity
-7160.920957	3766.930500	1999.946289	-113.404915
-7160.920957	3766.930500	1998.981445	-63.280891
-7160.920957	3766.930500	1998.017578	17.383383
-7160.920957	3766.930500	1997.052734	-23.708784
-7160.920957	3766.930500	1996.088867	-42.782593
-7160.920957	3766.930500	1995.124023	-39.836971
-7160.920957	3766.930500	1994.159180	-116.423973
-7160.920957	3766.930500	1993.193359	44.473545
-7160.920957	3766.930500	1992.228516	-2.917326
-7160.920957	3766.930500	1991.262695	-95.097404
-7160.920957	3766.930500	1990.296875	-14.243281
-7160.920957	3766.930500	1989.331055	71.294174
-7160.920957	3766.930500	1988.365234	-26.502092
-7160.920957	3766.930500	1987.398438	68.452499
-7160.920957	3766.930500	1986.432617	212.620865
-7160.920957	3766.930500	1985.465820	106.796783
-7160.920957	3766.930500	1984.499023	65.089317
-7160.920957	3766.930500	1983.532227	-70.718079
-7160.920957	3766.930500	1982.565430	52.819542
-7160.920957	3766.930500	1981.597656	134.128448
-7160.920957	3766.930500	1980.629883	32.433163
-7160.920957	3766.930500	1979.662109	-81.738297
-7160.920957	3766.930500	1978.694336	152.157578
-7160.920957	3766.930500	1977.726563	64.852585
-7160.920957	3766.930500	1976.758789	53.956867
-7160.920957	3766.930500	1975.790039	5.901290
-7160.920957	3766.930500	1974.821289	199.549728
-7160.920957	3766.930500	1973.852539	153.688171
-7160.920957	3766.930500	1972.883789	189.118607
-7160.920957	3766.930500	1971.915039	219.485168
-7160.920957	3766.930500	1970.945313	234.930374
-7160.920957	3766.930500	1969.975586	237.934845
-7160.920957	3766.930500	1969.005859	198.933853
-7160.920957	3766.930500	1968.036133	90.846939
-7160.920957	3766.930500	1967.066406	130.540283
-7160.920957	3766.930500	1966.096680	209.545486
-7160.920957	3766.930500	1965.125977	81.543861
-7160.920957	3766.930500	1964.155273	172.674133
-7160.920957	3766.930500	1963.184570	315.398712
-7160.920957	3766.930500	1962.213867	81.373291
-7160.920957	3766.930500	1961.242188	196.847290
-7160.920957	3766.930500	1960.271484	48.925552
-7160.920957	3766.930500	1959.299805	53.530247
-7160.920957	3766.930500	1958.328125	139.251068
-7160.920957	3766.930500	1957.356445	106.840813
-7160.920957	3766.930500	1956.384766	199.797318
-7160.920957	3766.930500	1955.412109	61.581020
-7160.920957	3766.930500	1954.439453	24.151554
-7160.920957	3766.930500	1953.467773	40.766956
-7160.920957	3766.930500	1952.495117	62.252346
-7160.920957	3766.930500	1951.521484	-107.917976
-7160.920957	3766.930500	1950.548828	-79.103104
-7160.920957	3766.930500	1949.575195	67.543594
-7160.920957	3766.930500	1948.601563	52.070305
-7160.920957	3766.930500	1947.627930	129.864639
-7160.920957	3766.930500	1946.654297	237.065094
-7160.920957	3766.930500	1945.680664	103.735909
-7160.920957	3766.930500	1944.706055	-12.384419
-7160.920957	3766.930500	1943.732422	21.161549
-7160.920957	3766.930500	1942.757813	157.688904
-7160.920957	3766.930500	1941.783203	-46.667732
-7160.920957	3766.930500	1940.807617	-20.507578
-7160.920957	3766.930500	1939.833008	0.745173
-7160.920957	3766.930500	1938.857422	166.576691
-7160.920957	3766.930500	1937.881836	82.432823
-7160.920957	3766.930500	1936.906250	189.405884
-7160.920957	3766.930500	1935.930664	127.348381
-7160.920957	3766.930500	1934.955078	-91.398956
-7160.920957	3766.930500	1933.978516	59.645264
-7160.920957	3766.930500	1933.001953	-31.694584
-7160.920957	3766.930500	1932.025391	-135.222031
-7160.920957	3766.930500	1931.048828	-30.698675
-7160.920957	3766.930500	1930.072266	-117.024857
-7160.920957	3766.930500	1929.094727	85.334335
-7160.920957	3766.930500	1928.118164	104.223083
-7160.920957	3766.930500	1927.140625	74.220383
-7160.920957	3766.930500	1926.163086	-80.426140
-7160.920957	3766.930500	1925.184570	-164.110428
-7160.920957	3766.930500	1924.207031	-181.749481
-7160.920957	3766.930500	1923.228516	30.316256
-7160.920957	3766.930500	1922.250000	-38.600014
-7160.920957	3766.930500	1921.271484	73.280052
-7160.920957	3766.930500	1920.292969	26.421257
-7160.920957	3766.930500	1919.314453	69.948036
-7160.920957	3766.930500	1918.334961	-84.238304
-7160.920957	3766.930500	1917.355469	-108.981216
-7160.920957	3766.930500	1916.375977	0.528634
-7160.920957	3766.930500	1915.396484	44.160587
-7160.920957	3766.930500	1914.416992	21.952894
-7160.920957	3766.930500	1913.436523	-119.713692
-7160.920957	3766.930500	1912.457031	104.462639
-7160.920957	3766.930500	1911.476563	-78.535568
-7160.920957	3766.930500	1910.496094	-10.372677
-7160.920957	3766.930500	1909.515625	23.685635
-7160.920957	3766.930500	1908.534180	6.600184
-7160.920957	3766.930500	1907.552734	-49.416183
-7160.920957	3766.930500	1906.572266	-61.527775
-7160.920957	3766.930500	1905.590820	-22.459824
-7160.920957	3766.930500	1904.608398	172.451111
-7160.920957	3766.930500	1903.626953	11.934471
-7160.920957	3766.930500	1902.644531	31.615252
-7160.920957	3766.930500	1901.663086	-55.733898
-7160.920957	3766.930500	1900.680664	39.453537
-7160.920957	3766.930500	1899.698242	-23.461292
-7160.920957	3766.930500	1898.714844	59.604069
-7160.920957	3766.930500	1897.732422	67.305580
-7160.920957	3766.930500	1896.749023	72.611343
-7160.920957	3766.930500	1895.765625	-26.559692
-7160.920957	3766.930500	1894.782227	107.641983
-7160.920957	3766.930500	1893.798828	32.880787
-7160.920957	3766.930500	1892.814453	43.208977
-7160.920957	3766.930500	1891.831055	9.858494
-7160.920957	3766.930500	1890.846680	-79.293053
-7160.920957	3766.930500	1889.862305	-97.962387
-7160.920957	3766.930500	1888.877930	38.769665
-7160.920957	3766.930500	1887.892578	129.375854
-7160.920957	3766.930500	1886.908203	28.296055
-7160.920957	3766.930500	1885.922852	-29.040546
-7160.920957	3766.930500	1884.937500	-28.101980
-7160.920957	3766.930500	1883.952148	52.904346
-7160.920957	3766.930500	1882.965820	46.627533
-7160.920957	3766.930500	1881.980469	33.120239
-7160.920957	3766.930500	1880.994141	-103.959557
-7160.920957	3766.930500	1880.007813	30.461819
-7160.920957	3766.930500	1879.021484	-82.264069
-7160.920957	3766.930500	1878.035156	-98.014671
-7160.920957	3766.930500	1877.047852	159.956390
-7160.920957	3766.930500	1876.061523	-102.757767
-7160.920957	3766.930500	1875.074219	114.029015
-7160.920957	3766.930500	1874.086914	137.120041
-7160.920957	3766.930500	1873.098633	-173.747498
-7160.920957	3766.930500	1872.111328	-70.695190
-7160.920957	3766.930500	1871.123047	-37.808640
-7160.920957	3766.930500	1870.135742	-46.020626
-7160.920957	3766.930500	1869.147461	-8.252103
-7160.920957	3766.930500	1868.158203	-28.498249
-7160.920957	3766.930500	1867.169922	-31.783381
-7160.920957	3766.930500	1866.180664	-64.043434
-7160.920957	3766.930500	1865.192383	-43.097301
-7160.920957	3766.930500	1864.203125	31.020544
-7160.920957	3766.930500	1863.213867	44.746719
-7160.920957	3766.930500	1862.223633	-96.077400
-7160.920957	3766.930500	1861.234375	236.461960
-7160.920957	3766.930500	1860.244141	28.106361
-7160.920957	3766.930500	1859.253906	63.647274
-7160.920957	3766.930500	1858.263672	19.558065
-7160.920957	3766.930500	1857.273438	-17.253321
-7160.920957	3766.930500	1856.282227	32.817783
-7160.920957	3766.930500	1855.291992	-129.362076
-7160.920957	3766.930500	1854.300781	-40.661922
-7160.920957	3766.930500	1853.309570	-147.272903
-7160.920957	3766.930500	1852.317383	-34.458927
-7160.920957	3766.930500	1851.326172	-39.765778
-7160.920957	3766.930500	1850.333984	109.167679
-7160.920957	3766.930500	1849.342773	62.911808
-7160.920957	3766.930500	1848.350586	62.455727
-7160.920957	3766.930500	1847.357422	62.014015
-7160.920957	3766.930500	1846.365234	-49.176071
-7160.920957	3766.930500	1845.372070	-102.533043
-7160.920957	3766.930500	1844.379883	-11.434949
-7160.920957	3766.930500	1843.386719	98.892136
-7160.920957	3766.930500	1842.393555	-33.827644
-7160.920957	3766.930500	1841.399414	90.916321
-7160.920957	3766.930500	1840.406250	95.364555
-7160.920957	3766.930500	1839.412109	220.055695
-7160.920957	3766.930500	1838.417969	101.874504
-7160.920957	3766.930500	1837.423828	-218.177399
-7160.920957	3766.930500	1836.429688	118.022217
-7160.920957	3766.930500	1835.434570	45.600742
-7160.920957	3766.930500	1834.440430	6.847891
-7160.920957	3766.930500	1833.445313	-125.567207
-7160.920957	3766.930500	1832.450195	11.047280
-7160.920957	3766.930500	1831.454102	-140.523056
-7160.920957	3766.930500	1830.458984	156.892822
-7160.920957	3766.930500	1829.462891	-119.457283
-7160.920957	3766.930500	1828.466797	-90.931862
-7160.920957	3766.930500	1827.470703	-2.435511
-7160.920957	3766.930500	1826.474609	98.020737
-7160.920957	3766.930500	1825.478516	112.093826
-7160.920957	3766.930500	1824.481445	20.647493
-7160.920957	3766.930500	1823.484375	13.144083
-7160.920957	3766.930500	1822.487305	8.036444
-7160.920957	3766.930500	1821.490234	29.287682
-7160.920957	3766.930500	1820.493164	-64.490654
-7160.920957	3766.930500	1819.495117	-105.535896
-7160.920957	3766.930500	1818.498047	-17.228655
-7160.920957	3766.930500	1817.500000	73.430305
-7160.920957	3766.930500	1816.500977	202.354294
-7160.920957	3766.930500	1815.502930	34.378555
-7160.920957	3766.930500	1814.504883	-28.233231
-7160.920957	3766.930500	1813.505859	-62.117825
-7160.920957	3766.930500	1812.506836	35.587624
-7160.920957	3766.930500	1811.507813	-0.712798
-7160.920957	3766.930500	1810.508789	218.891342
-7160.920957	3766.930500	1809.508789	-23.100487
-7160.920957	3766.930500	1808.508789	76.858215
-7160.920957	3766.930500	1807.508789	109.836121
-7160.920957	3766.930500	1806.508789	271.835968
-7160.920957	3766.930500	1805.508789	53.847370
-7160.920957	3766.930500	1804.508789	89.148941
-7160.920957	3766.930500	1803.507813	-95.320938
-7160.920957	3766.930500	1802.506836	111.894547
-7160.920957	3766.930500	1801.505859	190.084320
-7160.920957	3766.930500	1800.504883	-56.423634
-7160.920957	3766.930500	1799.502930	124.352486
-7160.920957	3766.930500	1798.501953	276.405762
-7160.920957	3766.930500	1797.500000	218.430862
-7160.920957	3766.930500	1796.498047	158.070282
-7160.920957	3766.930500	1795.496094	-52.536423
-7160.920957	3766.930500	1794.493164	151.798065
-7160.920957	3766.930500	1793.491211	72.341972
-7160.920957	3766.930500	1792.488281	57.243893
-7160.920957	3766.930500	1791.485352	-29.365232
-7160.920957	3766.930500	1790.482422	-1.602625
-7160.920957	3766.930500	1789.478516	116.642761
-7160.920957	3766.930500	1788.475586	53.809383
-7160.920957	3766.930500	1787.471680	-68.560326
-7160.920957	3766.930500	1786.467773	173.349304
-7160.920957	3766.930500	1785.463867	96.173073
-7160.920957	3766.930500	1784.459961	59.455425
-7160.920957	3766.930500	1783.455078	8.444033
-7160.920957	3766.930500	1782.450195	33.549450
-7160.920957	3766.930500	1781.445313	-7.984128
-7160.920957	3766.930500	1780.440430	-99.473045
-7160.920957	3766.930500	1779.435547	8.763446
-7160.920957	3766.930500	1778.429688	12.329354
-7160.920957	3766.930500	1777.424805	179.858185
-7160.920957	3766.930500	1776.418945	173.820099
-7160.920957	3766.930500	1775.413086	113.107376
-7160.920957	3766.930500	1774.406250	47.631554
-7160.920957	3766.930500	1773.400391	-3.601007
-7160.920957	3766.930500	1772.393555	78.119873
-7160.920957	3766.930500	1771.386719	81.432732
-7160.920957	3766.930500	1770.379883	32.491055
-7160.920957	3766.930500	1769.373047	-184.959366
-7160.920957	3766.930500	1768.365234	93.524620
-7160.920957	3766.930500	1767.358398	68.224731
-7160.920957	3766.930500	1766.350586	71.357162
-7160.920957	3766.930500	1765.342773	204.875168
-7160.920957	3766.930500	1764.334961	115.443527
-7160.920957	3766.930500	1763.326172	14.154699
-7160.920957	3766.930500	1762.318359	128.536880
-7160.920957	3766.930500	1761.309570	349.464172
-7160.920957	3766.930500	1760.300781	179.373489
-7160.920957	3766.930500	1759.291016	70.891319
-7160.920957	3766.930500	1758.282227	182.654129
-7160.920957	3766.930500	1757.272461	306.172485
-7160.920957	3766.930500	1756.262695	95.820961
-7160.920957	3766.930500	1755.252930	70.121849
-7160.920957	3766.930500	1754.243164	181.643372
-7160.920957	3766.930500	1753.233398	170.055801
-7160.920957	3766.930500	1752.222656	172.623688
-7160.920957	3766.930500	1751.211914	90.010391
-7160.920957	3766.930500	1750.201172	-23.350111
-7160.920957	3766.930500	1749.190430	-79.967674
-7160.920957	3766.930500	1748.179688	61.943748
-7160.920957	3766.930500	1747.167969	132.862442
-7160.920957	3766.930500	1746.156250	14.692743
-7160.920957	3766.930500	1745.144531	253.237320
-7160.920957	3766.930500	1744.132813	182.247589
-7160.920957	3766.930500	1743.121094	193.894440
-7160.920957	3766.930500	1742.108398	63.835213
-7160.920957	3766.930500	1741.095703	115.545265
-7160.920957	3766.930500	1740.083008	13.791210
-7160.920957	3766.930500	1739.070313	-12.456248
-7160.920957	3766.930500	1738.057617	-170.847473
-7160.920957	3766.930500	1737.043945	-135.807281
-7160.920957	3766.930500	1736.030273	-119.686729
-7160.920957	3766.930500	1735.016602	99.159241
-7160.920957	3766.930500	1734.002930	11.425036
-7160.920957	3766.930500	1732.989258	201.798721
-7160.920957	3766.930500	1731.974609	198.827011
-7160.920957	3766.930500	1730.959961	127.492592
-7160.920957	3766.930500	1729.945313	110.322899
-7160.920957	3766.930500	1728.930664	62.503590
-7160.920957	3766.930500	1727.916016	195.971313
-7160.920957	3766.930500	1726.900391	70.382034
-7160.920957	3766.930500	1725.885742	20.125834
-7160.920957	3766.930500	1724.870117	179.289429
-7160.920957	3766.930500	1723.853516	-2.815622
-7160.920957	3766.930500	1722.837891	-100.198898
-7160.920957	3766.930500	1721.822266	-77.634628
-7160.920957	3766.930500	1720.805664	-95.096870
-7160.920957	3766.930500	1719.789063	12.014730
-7160.920957	3766.930500	1718.772461	-43.144844
-7160.920957	3766.930500	1717.754883	131.988846
-7160.920957	3766.930500	1716.738281	231.831970
-7160.920957	3766.930500	1715.720703	-2.000000
-7160.920957	3766.930500	1714.703125	-111.293228
-7160.920957	3766.930500	1713.685547	-28.017183
-7160.920957	3766.930500	1712.667969	15.275653
-7160.920957	3766.930500	1711.649414	-21.303070
-7160.920957	3766.930500	1710.630859	31.281469
-7160.920957	3766.930500	1709.612305	1.680430
-7160.920957	3766.930500	1708.593750	-58.445251
-7160.920957	3766.930500	1707.575195	31.538509
-7160.920957	3766.930500	1706.555664	116.756920
-7160.920957	3766.930500	1705.536133	117.496460
-7160.920957	3766.930500	1704.516602	17.394661
-7160.920957	3766.930500	1703.497070	15.738969
-7160.920957	3766.930500	1702.477539	89.038506
-7160.920957	3766.930500	1701.457031	202.101456
-7160.920957	3766.930500	1700.437500	-3.489779
-7160.920957	3766.930500	1699.416992	67.323677
-7160.920957	3766.930500	1698.395508	252.810181
-7160.920957	3766.930500	1697.375000	-41.740665
-7160.920957	3766.930500	1696.354492	10.214665
-7160.920957	3766.930500	1695.333008	22.328962
-7160.920957	3766.930500	1694.311523	-42.807163
-7160.920957	3766.930500	1693.290039	62.823784
-7160.920957	3766.930500	1692.267578	39.738293
-7160.920957	3766.930500	1691.246094	-4.410353
-7160.920957	3766.930500	1690.223633	5.197516
-7160.920957	3766.930500	1689.201172	131.649277
-7160.920957	3766.930500	1688.178711	47.683632
-7160.920957	3766.930500	1687.155273	-38.620506
-7160.920957	3766.930500	1686.132813	-80.526573
-7160.920957	3766.930500	1685.109375	157.842010
-7160.920957	3766.930500	1684.085938	230.283234
-7160.920957	3766.930500	1683.062500	-19.541307
-7160.920957	3766.930500	1682.039063	111.212593
-7160.920957	3766.930500	1681.014648	69.172081
-7160.920957	3766.930500	1679.990234	45.790031
-7160.920957	3766.930500	1678.965820	143.710480
-7160.920957	3766.930500	1677.941406	-57.006493
-7160.920957	3766.930500	1676.916992	36.182560
-7160.920957	3766.930500	1675.891602	133.970123
-7160.920957	3766.930500	1674.866211	119.796539
-7160.920957	3766.930500	1673.840820	-97.177551
-7160.920957	3766.930500	1672.815430	26.145058
-7160.920957	3766.930500	1671.790039	-9.036868
-7160.920957	3766.930500	1670.763672	-18.608065
-7160.920957	3766.930500	1669.737305	-153.963531
-7160.920957	3766.930500	1668.710938	-23.829809
-7160.920957	3766.930500	1667.684570	-33.453892
-7160.920957	3766.930500	1666.658203	-36.110153
-7160.920957	3766.930500	1665.630859	-59.735138
-7160.920957	3766.930500	1664.603516	-199.707642
-7160.920957	3766.930500	1663.576172	-60.485107
-7160.920957	3766.930500	1662.548828	-263.236908
-7160.920957	3766.930500	1661.520508	-79.911354
-7160.920957	3766.930500	1660.493164	33.583210
-7160.920957	3766.930500	1659.464844	-203.991226
-7160.920957	3766.930500	1658.436523	-157.950836
-7160.920957	3766.930500	1657.408203	-211.859009
-7160.920957	3766.930500	1656.378906	22.309040
-7160.920957	3766.930500	1655.350586	-54.867111
-7160.920957	3766.930500	1654.321289	-36.818428
-7160.920957	3766.930500	1653.291992	-0.213570
-7160.920957	3766.930500	1652.261719	-63.460865
-7160.920957	3766.930500	1651.232422	-70.985054
-7160.920957	3766.930500	1650.202148	-182.945190
-7160.920957	3766.930500	1649.171875	-95.347755
-7160.920957	3766.930500	1648.141602	177.772659
-7160.920957	3766.930500	1647.111328	225.822937
-7160.920957	3766.930500	1646.080078	41.971848
-7160.920957	3766.930500	1645.049805	236.063309
-7160.920957	3766.930500	1644.018555	49.949917
-7160.920957	3766.930500	1642.987305	223.090073
-7160.920957	3766.930500	1641.955078	287.258026
-7160.920957	3766.930500	1640.923828	226.313354
-7160.920957	3766.930500	1639.891602	373.821533
-7160.920957	3766.930500	1638.859375	354.550537
-7160.920957	3766.930500	1637.827148	233.418961
-7160.920957	3766.930500	1636.794922	244.266266
-7160.920957	3766.930500	1635.761719	477.266144
-7160.920957	3766.930500	1634.729492	344.606293
-7160.920957	3766.930500	1633.696289	267.510437
-7160.920957	3766.930500	1632.662109	604.441040
-7160.920957	3766.930500	1631.628906	351.582916
-7160.920957	3766.930500	1630.594727	223.663681
-7160.920957	3766.930500	1629.561523	326.953033
-7160.920957	3766.930500	1628.527344	390.910065
-7160.920957	3766.930500	1627.493164	390.149384
-7160.920957	3766.930500	1626.458008	324.702179
-7160.920957	3766.930500	1625.423828	171.520737
-7160.920957	3766.930500	1624.388672	249.324875
-7160.920957	3766.930500	1623.353516	301.706818
-7160.920957	3766.930500	1622.318359	155.554840
-7160.920957	3766.930500	1621.282227	390.268311
-7160.920957	3766.930500	1620.247070	264.937103
-7160.920957	3766.930500	1619.210938	100.438431
-7160.920957	3766.930500	1618.174805	99.779427
-7160.920957	3766.930500	1617.137695	-36.937386
-7160.920957	3766.930500	1616.101563	-65.218880
-7160.920957	3766.930500	1615.064453	137.037796
-7160.920957	3766.930500	1614.027344	106.445221
-7160.920957	3766.930500	1612.990234	22.876089
-7160.920957	3766.930500	1611.953125	241.160110
-7160.920957	3766.930500	1610.916016	150.712921
-7160.920957	3766.930500	1609.877930	55.702564
-7160.920957	3766.930500	1608.839844	184.090179
-7160.920957	3766.930500	1607.801758	54.607815
-7160.920957	3766.930500	1606.763672	268.135956
-7160.920957	3766.930500	1605.724609	-121.319412
-7160.920957	3766.930500	1604.685547	200.320938
-7160.920957	3766.930500	1603.646484	105.501961
-7160.920957	3766.930500	1602.607422	95.831657
-7160.920957	3766.930500	1601.568359	40.195389
-7160.920957	3766.930500	1600.528320	-22.302139
-7160.920957	3766.930500	1599.489258	-50.272842
-7160.920957	3766.930500	1598.449219	57.367111
-7160.920957	3766.930500	1597.408203	27.125208
-7160.920957	3766.930500	1596.368164	-78.884041
-7160.920957	3766.930500	1595.327148	-14.879408
-7160.920957	3766.930500	1594.287109	46.831642
-7160.920957	3766.930500	1593.246094	-38.393402
-7160.920957	3766.930500	1592.204102	16.449030
-7160.920957	3766.930500	1591.163086	-13.611760
-7160.920957	3766.930500	1590.121094	4.543569
-7160.920957	3766.930500	1589.079102	86.948975
-7160.920957	3766.930500	1588.037109	107.422401
-7160.920957	3766.930500	1586.995117	176.069870
-7160.920957	3766.930500	1585.953125	127.792328
-7160.920957	3766.930500	1584.910156	-115.281754
-7160.920957	3766.930500	1583.867188	200.958572
-7160.920957	3766.930500	1582.824219	40.509949
-7160.920957	3766.930500	1581.781250	239.821152
-7160.920957	3766.930500	1580.737305	228.360626
-7160.920957	3766.930500	1579.693359	189.454987
-7160.920957	3766.930500	1578.649414	354.364532
-7160.920957	3766.930500	1577.605469	269.731415
-7160.920957	3766.930500	1576.561523	246.956497
-7160.920957	3766.930500	1575.516602	144.133392
-7160.920957	3766.930500	1574.472656	185.514984
-7160.920957	3766.930500	1573.427734	121.695152
-7160.920957	3766.930500	1572.381836	195.140335
-7160.920957	3766.930500	1571.336914	200.004578
-7160.920957	3766.930500	1570.291016	282.619263
-7160.920957	3766.930500	1569.246094	202.973267
-7160.920957	3766.930500	1568.200195	61.693989
-7160.920957	3766.930500	1567.153320	-4.104692
-7160.920957	3766.930500	1566.107422	7.824648
-7160.920957	3766.930500	1565.060547	-66.997795
-7160.920957	3766.930500	1564.013672	54.607574
-7160.920957	3766.930500	1562.966797	7.277926
-7160.920957	3766.930500	1561.919922	69.558647
-7160.920957	3766.930500	1560.872070	99.904106
-7160.920957	3766.930500	1559.825195	166.785858
-7160.920957	3766.930500	1558.777344	137.875900
-7160.920957	3766.930500	1557.729492	67.968788
-7160.920957	3766.930500	1556.680664	46.009281
-7160.920957	3766.930500	1555.632813	215.596512
-7160.920957	3766.930500	1554.583984	118.487755
-7160.920957	3766.930500	1553.535156	185.532059
-7160.920957	3766.930500	1552.486328	241.202515
-7160.920957	3766.930500	1551.436523	223.998734
-7160.920957	3766.930500	1550.387695	190.909058
-7160.920957	3766.930500	1549.337891	171.535873
-7160.920957	3766.930500	1548.288086	225.063950
-7160.920957	3766.930500	1547.238281	-135.629364
-7160.920957	3766.930500	1546.187500	-77.421219
-7160.920957	3766.930500	1545.136719	-16.914091
-7160.920957	3766.930500	1544.086914	57.266869
-7160.920957	3766.930500	1543.035156	-0.447723
-7160.920957	3766.930500	1541.984375	178.390167
-7160.920957	3766.930500	1540.933594	166.242355
-7160.920957	3766.930500	1539.881836	45.042480
-7160.920957	3766.930500	1538.830078	180.731705
-7160.920957	3766.930500	1537.778320	248.255661
-7160.920957	3766.930500	1536.725586	174.960266
-7160.920957	3766.930500	1535.673828	344.760223
-7160.920957	3766.930500	1534.621094	355.592133
-7160.920957	3766.930500	1533.568359	595.765015
-7160.920957	3766.930500	1532.515625	509.043915
-7160.920957	3766.930500	1531.461914	472.331482
-7160.920957	3766.930500	1530.409180	555.939453
-7160.920957	3766.930500	1529.355469	614.612427
-7160.920957	3766.930500	1528.301758	793.517639
-7160.920957	3766.930500	1527.247070	754.717224
-7160.920957	3766.930500	1526.193359	768.131714
-7160.920957	3766.930500	1525.138672	1001.459351
-7160.920957	3766.930500	1524.083984	962.800659
-7160.920957	3766.930500	1523.029297	964.996704
-7160.920957	3766.930500	1521.974609	1241.349487
-7160.920957	3766.930500	1520.918945	1329.660645
-7160.920957	3766.930500	1519.863281	1581.031494
-7160.920957	3766.930500	1518.807617	1796.133179
-7160.920957	3766.930500	1517.751953	1716.947266
-7160.920957	3766.930500	1516.696289	1769.106812
-7160.920957	3766.930500	1515.639648	1916.329834
-7160.920957	3766.930500	1514.583008	2131.416504
-7160.920957	3766.930500	1513.526367	2414.326660
-7160.920957	3766.930500	1512.469727	2416.781494
-7160.920957	3766.930500	1511.412109	2591.114502
-7160.920957	3766.930500	1510.355469	2858.113281
-7160.920957	3766.930500	1509.297852	2824.488770
-7160.920957	3766.930500	1508.240234	3118.562988
-7160.920957	3766.930500	1507.181641	2933.657471
-7160.920957	3766.930500	1506.124023	3121.553467
-7160.920957	3766.930500	1505.065430	3311.691162
-7160.920957	3766.930500	1504.006836	3388.924805
-7160.920957	3766.930500	1502.948242	3272.063232
-7160.920957	3766.930500	1501.888672	3353.903809
-7160.920957	3766.930500	1500.830078	3334.235596
-7160.920957	3766.930500	1499.770508	3610.157959
-7160.920957	3766.930500	1498.710938	3547.709961
-7160.920957	3766.930500	1497.650391	3571.034424
-7160.920957	3766.930500	1496.590820	3217.897461
-7160.920957	3766.930500	1495.530273	3239.143555
-7160.920957	3766.930500	1494.469727	3177.054932
-7160.920957	3766.930500	1493.409180	2986.616455
-7160.920957	3766.930500	1492.348633	2834.611328
-7160.920957	3766.930500	1491.287109	2534.071777
-7160.920957	3766.930500	1490.225586	2490.426758
-7160.920957	3766.930500	1489.164063	2271.246338
-7160.920957	3766.930500	1488.102539	1851.875610
-7160.920957	3766.930500	1487.041016	1714.050659
-7160.920957	3766.930500	1485.978516	1583.090576
-7160.920957	3766.930500	1484.916016	1515.109131
-7160.920957	3766.930500	1483.853516	1272.020508
-7160.920957	3766.930500	1482.791016	965.994629
-7160.920957	3766.930500	1481.727539	810.786072
-7160.920957	3766.930500	1480.664063	709.649109
-7160.920957	3766.930500	1479.600586	799.630676
-7160.920957	3766.930500	1478.537109	543.635010
-7160.920957	3766.930500	1477.473633	521.347656
-7160.920957	3766.930500	1476.409180	512.733459
-7160.920957	3766.930500	1475.344727	432.296417
-7160.920957	3766.930500	1474.280273	457.344055
-7160.920957	3766.930500	1473.215820	271.587280
-7160.920957	3766.930500	1472.151367	234.068054
-7160.920957	3766.930500	1471.085938	459.073730
-7160.920957	3766.930500	1470.020508	457.405823
-7160.920957	3766.930500	1468.955078	240.713654
-7160.920957	3766.930500	1467.888672	270.794525
-7160.920957	3766.930500	1466.823242	135.187500
-7160.920957	3766.930500	1465.756836	232.090775
-7160.920957	3766.930500	1464.690430	224.441254
-7160.920957	3766.930500	1463.624023	-36.362694
-7160.920957	3766.930500	1462.556641	312.119019
-7160.920957	3766.930500	1461.490234	180.909271
-7160.920957	3766.930500	1460.422852	260.786835
-7160.920957	3766.930500	1459.355469	271.116089
-7160.920957	3766.930500	1458.287109	274.982819
-7160.920957	3766.930500	1457.219727	348.181885
-7160.920957	3766.930500	1456.151367	200.015945
-7160.920957	3766.930500	1455.083008	491.439911
-7160.920957	3766.930500	1454.014648	676.133362
-7160.920957	3766.930500	1452.945313	420.872772
-7160.920957	3766.930500	1451.876953	398.804932
-7160.920957	3766.930500	1450.807617	536.612915
-7160.920957	3766.930500	1449.738281	350.859711
-7160.920957	3766.930500	1448.668945	350.259064
-7160.920957	3766.930500	1447.598633	267.176575
-7160.920957	3766.930500	1446.528320	304.136963
-7160.920957	3766.930500	1445.458008	141.791428
-7160.920957	3766.930500	1444.387695	150.214966
-7160.920957	3766.930500	1443.317383	110.125145
-7160.920957	3766.930500	1442.246094	146.980576
-7160.920957	3766.930500	1441.174805	135.044022
-7160.920957	3766.930500	1440.103516	186.954895
-7160.920957	3766.930500	1439.032227	66.713959
-7160.920957	3766.930500	1437.960938	153.583664
-7160.920957	3766.930500	1436.888672	245.326599
-7160.920957	3766.930500	1435.816406	46.921017
-7160.920957	3766.930500	1434.744141	244.008286
-7160.920957	3766.930500	1433.670898	-69.368614
-7160.920957	3766.930500	1432.598633	-205.628387
-7160.920957	3766.930500	1431.525391	48.655067
-7160.920957	3766.930500	1430.452148	-34.335182
-7160.920957	3766.930500	1429.378906	-69.472450
-7160.920957	3766.930500	1428.304688	-87.512352
-7160.920957	3766.930500	1427.231445	118.218636
-7160.920957	3766.930500	1426.157227	-71.982765
-7160.920957	3766.930500	1425.083008	-48.674995
-7160.920957	3766.930500	1424.007813	-203.687683
-7160.920957	3766.930500	1422.933594	27.784088
-7160.920957	3766.930500	1421.858398	56.007160
-7160.920957	3766.930500	1420.783203	-17.719704
-7160.920957	3766.930500	1419.708008	-154.443695
-7160.920957	3766.930500	1418.631836	29.088793
-7160.920957	3766.930500	1417.555664	69.099197
-7160.920957	3766.930500	1416.479492	196.379196
-7160.920957	3766.930500	1415.403320	14.937240
-7160.920957	3766.930500	1414.327148	15.359919
-7160.920957	3766.930500	1413.250000	107.260406
-7160.920957	3766.930500	1412.173828	54.378178
-7160.920957	3766.930500	1411.096680	110.657738
-7160.920957	3766.930500	1410.018555	90.411362
-7160.920957	3766.930500	1408.941406	324.864594
-7160.920957	3766.930500	1407.863281	11.055901
-7160.920957	3766.930500	1406.785156	161.272675
-7160.920957	3766.930500	1405.707031	80.460831
-7160.920957	3766.930500	1404.628906	-48.124149
-7160.920957	3766.930500	1403.549805	59.754337
-7160.920957	3766.930500	1402.470703	-96.160500
-7160.920957	3766.930500	1401.391602	-112.596581
-7160.920957	3766.930500	1400.312500	-38.171474
-7160.920957	3766.930500	1399.233398	-25.205885
-7160.920957	3766.930500	1398.153320	-285.590942
-7160.920957	3766.930500	1397.073242	-155.666687
-7160.920957	3766.930500	1395.993164	59.969810
-7160.920957	3766.930500	1394.913086	41.473423
-7160.920957	3766.930500	1393.832031	-185.370087
-7160.920957	3766.930500	1392.750977	164.488739
-7160.920957	3766.930500	1391.669922	26.248686
-7160.920957	3766.930500	1390.588867	-59.328934
-7160.920957	3766.930500	1389.506836	-96.753120
-7160.920957	3766.930500	1388.425781	-84.874268
-7160.920957	3766.930500	1387.343750	28.418968
-7160.920957	3766.930500	1386.261719	92.775375
-7160.920957	3766.930500	1385.178711	-30.694756
-7160.920957	3766.930500	1384.096680	96.135384
-7160.920957	3766.930500	1383.013672	253.997559
-7160.920957	3766.930500	1381.930664	216.392944
-7160.920957	3766.930500	1380.846680	241.693665
-7160.920957	3766.930500	1379.763672	225.702972
-7160.920957	3766.930500	1378.679688	370.754517
-7160.920957	3766.930500	1377.595703	240.710602
-7160.920957	3766.930500	1376.511719	425.715332
-7160.920957	3766.930500	1375.427734	245.211578
-7160.920957	3766.930500	1374.342773	257.450623
-7160.920957	3766.930500	1373.257813	173.252609
-7160.920957	3766.930500	1372.172852	105.590736
-7160.920957	3766.930500	1371.087891	111.818062
-7160.920957	3766.930500	1370.001953	194.290436
-7160.920957	3766.930500	1368.916992	6.313358
-7160.920957	3766.930500	1367.831055	192.529678
-7160.920957	3766.930500	1366.744141	189.499573
-7160.920957	3766.930500	1365.658203	61.767609
-7160.920957	3766.930500	1364.571289	147.568604
-7160.920957	3766.930500	1363.484375	140.283981
-7160.920957	3766.930500	1362.397461	176.835129
-7160.920957	3766.930500	1361.310547	255.403198
-7160.920957	3766.930500	1360.222656	245.382401
-7160.920957	3766.930500	1359.135742	379.707550
-7160.920957	3766.930500	1358.047852	507.463440
-7160.920957	3766.930500	1356.958984	396.519806
-7160.920957	3766.930500	1355.871094	292.094452
-7160.920957	3766.930500	1354.782227	351.371948
-7160.920957	3766.930500	1353.693359	248.476624
-7160.920957	3766.930500	1352.604492	274.832764
-7160.920957	3766.930500	1351.515625	244.297318
-7160.920957	3766.930500	1350.425781	255.443405
-7160.920957	3766.930500	1349.335938	282.995789
-7160.920957	3766.930500	1348.246094	343.208893
-7160.920957	3766.930500	1347.156250	136.975754
-7160.920957	3766.930500	1346.066406	319.707977
-7160.920957	3766.930500	1344.975586	453.637054
-7160.920957	3766.930500	1343.884766	286.757141
-7160.920957	3766.930500	1342.793945	353.987640
-7160.920957	3766.930500	1341.702148	288.637268
-7160.920957	3766.930500	1340.611328	245.555923
-7160.920957	3766.930500	1339.519531	202.596848
-7160.920957	3766.930500	1338.427734	75.605629
-7160.920957	3766.930500	1337.334961	169.187912
-7160.920957	3766.930500	1336.243164	167.236450
-7160.920957	3766.930500	1335.150391	92.247162
-7160.920957	3766.930500	1334.057617	57.115406
-7160.920957	3766.930500	1332.964844	219.371933
-7160.920957	3766.930500	1331.871094	138.088272
-7160.920957	3766.930500	1330.778320	269.910919
-7160.920957	3766.930500	1329.684570	89.576180
-7160.920957	3766.930500	1328.590820	175.601425
-7160.920957	3766.930500	1327.496094	133.052368
-7160.920957	3766.930500	1326.402344	169.197433
-7160.920957	3766.930500	1325.307617	154.422501
-7160.920957	3766.930500	1324.212891	161.526108
-7160.920957	3766.930500	1323.117188	35.491016
-7160.920957	3766.930500	1322.022461	133.993744
-7160.920957	3766.930500	1320.926758	55.918343
-7160.920957	3766.930500	1319.831055	143.226349
-7160.920957	3766.930500	1318.735352	-11.204788
-7160.920957	3766.930500	1317.638672	44.374371
-7160.920957	3766.930500	1316.542969	23.879477
-7160.920957	3766.930500	1315.446289	77.212288
-7160.920957	3766.930500	1314.349609	49.916309
-7160.920957	3766.930500	1313.251953	113.105301
-7160.920957	3766.930500	1312.155273	113.347176
-7160.920957	3766.930500	1311.057617	111.557442
-7160.920957	3766.930500	1309.959961	-82.083710
-7160.920957	3766.930500	1308.862305	-24.423439
-7160.920957	3766.930500	1307.763672	104.672562
-7160.920957	3766.930500	1306.665039	56.358101
-7160.920957	3766.930500	1305.566406	164.790894
-7160.920957	3766.930500	1304.467773	75.197029
-7160.920957	3766.930500	1303.369141	151.200043
-7160.920957	3766.930500	1302.269531	162.514389
-7160.920957	3766.930500	1301.169922	295.900238
-7160.920957	3766.930500	1300.070313	179.804443
-7160.920957	3766.930500	1298.970703	188.354416
-7160.920957	3766.930500	1297.870117	155.926743
-7160.920957	3766.930500	1296.769531	318.788452
-7160.920957	3766.930500	1295.668945	247.292587
-7160.920957	3766.930500	1294.568359	165.436737
-7160.920957	3766.930500	1293.466797	212.467621
-7160.920957	3766.930500	1292.366211	159.504669
-7160.920957	3766.930500	1291.264648	242.091583
-7160.920957	3766.930500	1290.162109	393.078491
-7160.920957	3766.930500	1289.060547	236.566330
-7160.920957	3766.930500	1287.958008	231.365341
-7160.920957	3766.930500	1286.855469	215.462311
-7160.920957	3766.930500	1285.752930	228.265961
-7160.920957	3766.930500	1284.650391	287.487762
-7160.920957	3766.930500	1283.546875	260.819733
-7160.920957	3766.930500	1282.444336	144.911667
-7160.920957	3766.930500	1281.339844	81.827820
-7160.920957	3766.930500	1280.236328	237.112411
-7160.920957	3766.930500	1279.132813	222.742630
-7160.920957	3766.930500	1278.028320	114.340210
-7160.920957	3766.930500	1276.923828	245.408539
-7160.920957	3766.930500	1275.819336	238.519424
-7160.920957	3766.930500	1274.713867	190.659851
-7160.920957	3766.930500	1273.608398	322.342987
-7160.920957	3766.930500	1272.503906	230.907181
-7160.920957	3766.930500	1271.397461	193.285812
-7160.920957	3766.930500	1270.291992	154.605255
-7160.920957	3766.930500	1269.185547	257.922791
-7160.920957	3766.930500	1268.080078	221.210602
-7160.920957	3766.930500	1266.972656	239.756454
-7160.920957	3766.930500	1265.866211	198.396759
-7160.920957	3766.930500	1264.759766	197.394821
-7160.920957	3766.930500	1263.652344	307.779541
-7160.920957	3766.930500	1262.544922	267.130585
-7160.920957	3766.930500	1261.436523	31.599901
-7160.920957	3766.930500	1260.329102	264.357025
-7160.920957	3766.930500	1259.220703	251.032394
-7160.920957	3766.930500	1258.112305	108.297516
-7160.920957	3766.930500	1257.003906	225.788742
-7160.920957	3766.930500	1255.895508	203.450012
-7160.920957	3766.930500	1254.786133	43.186649
-7160.920957	3766.930500	1253.676758	178.801559
-7160.920957	3766.930500	1252.567383	79.378860
-7160.920957	3766.930500	1251.458008	80.739944
-7160.920957	3766.930500	1250.347656	61.400944
-7160.920957	3766.930500	1249.237305	227.373322
-7160.920957	3766.930500	1248.126953	61.859341
-7160.920957	3766.930500	1247.016602	-159.019745
-7160.920957	3766.930500	1245.905273	-55.940739
-7160.920957	3766.930500	1244.793945	-12.517596
-7160.920957	3766.930500	1243.682617	-241.398621
-7160.920957	3766.930500	1242.571289	-68.299469
-7160.920957	3766.930500	1241.459961	-43.973408
-7160.920957	3766.930500	1240.347656	-61.593857
-7160.920957	3766.930500	1239.235352	-145.426071
-7160.920957	3766.930500	1238.123047	-140.916168
-7160.920957	3766.930500	1237.009766	-127.930000
-7160.920957	3766.930500	1235.897461	-131.765656
-7160.920957	3766.930500	1234.784180	18.038866
-7160.920957	3766.930500	1233.670898	85.154915
-7160.920957	3766.930500	1232.556641	27.311827
-7160.920957	3766.930500	1231.443359	80.189178
-7160.920957	3766.930500	1230.329102	27.732246
-7160.920957	3766.930500	1229.214844	117.148117
-7160.920957	3766.930500	1228.099609	58.024475
-7160.920957	3766.930500	1226.985352	79.733421
-7160.920957	3766.930500	1225.870117	40.961327
-7160.920957	3766.930500	1224.754883	76.755692
-7160.920957	3766.930500	1223.639648	-45.267544
-7160.920957	3766.930500	1222.523438	21.779516
-7160.920957	3766.930500	1221.408203	93.670547
-7160.920957	3766.930500	1220.291992	50.173302
-7160.920957	3766.930500	1219.174805	-7.138321
-7160.920957	3766.930500	1218.058594	20.348843
-7160.920957	3766.930500	1216.941406	-57.327545
-7160.920957	3766.930500	1215.824219	8.817694
-7160.920957	3766.930500	1214.707031	115.659325
-7160.920957	3766.930500	1213.589844	17.801596
-7160.920957	3766.930500	1212.471680	90.659607
-7160.920957	3766.930500	1211.353516	-40.510372
-7160.920957	3766.930500	1210.235352	-52.940010
-7160.920957	3766.930500	1209.117188	73.689804
-7160.920957	3766.930500	1207.998047	-38.035973
-7160.920957	3766.930500	1206.878906	-37.489395
-7160.920957	3766.930500	1205.759766	-136.235611
-7160.920957	3766.930500	1204.640625	5.000577
-7160.920957	3766.930500	1203.520508	43.416332
-7160.920957	3766.930500	1202.401367	6.210428
-7160.920957	3766.930500	1201.281250	-153.473572
-7160.920957	3766.930500	1200.160156	4.826985
-7160.920957	3766.930500	1199.040039	-140.642120
-7160.920957	3766.930500	1197.918945	-11.811679
-7160.920957	3766.930500	1196.797852	-134.343521
-7160.920957	3766.930500	1195.676758	-195.521011
-7160.920957	3766.930500	1194.555664	-127.216888
-7160.920957	3766.930500	1193.433594	122.474350
-7160.920957	3766.930500	1192.311523	-7.201320
-7160.920957	3766.930500	1191.189453	-205.760651
-7160.920957	3766.930500	1190.066406	49.976707
-7160.920957	3766.930500	1188.944336	-2.851885
-7160.920957	3766.930500	1187.821289	131.190079
-7160.920957	3766.930500	1186.698242	-68.307510
-7160.920957	3766.930500	1185.574219	-81.405136
-7160.920957	3766.930500	1184.451172	7.767216
-7160.920957	3766.930500	1183.327148	-22.665651
-7160.920957	3766.930500	1182.203125	61.604511
-7160.920957	3766.930500	1181.078125	84.280830
-7160.920957	3766.930500	1179.954102	-82.213737
-7160.920957	3766.930500	1178.829102	-54.119316
-7160.920957	3766.930500	1177.704102	-126.635849
-7160.920957	3766.930500	1176.579102	-74.880135
-7160.920957	3766.930500	1175.453125	-59.447979
-7160.920957	3766.930500	1174.327148	-121.274094
-7160.920957	3766.930500	1173.201172	-108.643730
-7160.920957	3766.930500	1172.075195	-122.280113
-7160.920957	3766.930500	1170.949219	-68.926003
-7160.920957	3766.930500	1169.822266	-16.318432
-7160.920957	3766.930500	1168.695313	-47.518913
-7160.920957	3766.930500	1167.568359	19.673653
-7160.920957	3766.930500	1166.440430	-58.046677
-7160.920957	3766.930500	1165.313477	-26.904661
-7160.920957	3766.930500	1164.185547	-99.499931
-7160.920957	3766.930500	1163.057617	-51.000305
-7160.920957	3766.930500	1161.928711	57.527447
-7160.920957	3766.930500	1160.800781	-34.096771
-7160.920957	3766.930500	1159.671875	7.819688
-7160.920957	3766.930500	1158.541992	-91.777008
-7160.920957	3766.930500	1157.413086	-80.075569
-7160.920957	3766.930500	1156.283203	-74.555862
-7160.920957	3766.930500	1155.154297	-8.687243
-7160.920957	3766.930500	1154.023438	-32.938469
-7160.920957	3766.930500	1152.893555	-73.328133
-7160.920957	3766.930500	1151.763672	8.054893
-7160.920957	3766.930500	1150.632813	-60.352501
-7160.920957	3766.930500	1149.501953	152.124542
-7160.920957	3766.930500	1148.370117	-58.225586
-7160.920957	3766.930500	1147.239258	-109.188713
-7160.920957	3766.930500	1146.107422	-17.162159
-7160.920957	3766.930500	1144.975586	30.717525
-7160.920957	3766.930500	1143.843750	36.742340
-7160.920957	3766.930500	1142.710938	170.448624
-7160.920957	3766.930500	1141.578125	-74.736107
-7160.920957	3766.930500	1140.445313	-69.984207
-7160.920957	3766.930500	1139.312500	43.358150
-7160.920957	3766.930500	1138.178711	15.118247
-7160.920957	3766.930500	1137.045898	-56.982910
-7160.920957	3766.930500	1135.912109	86.614929
-7160.920957	3766.930500	1134.777344	89.918068
-7160.920957	3766.930500	1133.643555	-67.319099
-7160.920957	3766.930500	1132.508789	69.947403
-7160.920957	3766.930500	1131.374023	-70.730621
-7160.920957	3766.930500	1130.239258	41.049709
-7160.920957	3766.930500	1129.104492	-15.660766
-7160.920957	3766.930500	1127.968750	88.755539
-7160.920957	3766.930500	1126.833008	221.008240
-7160.920957	3766.930500	1125.697266	145.279556
-7160.920957	3766.930500	1124.560547	255.390610
-7160.920957	3766.930500	1123.424805	155.316483
-7160.920957	3766.930500	1122.288086	97.030930
-7160.920957	3766.930500	1121.151367	44.013725
-7160.920957	3766.930500	1120.013672	-8.261253
-7160.920957	3766.930500	1118.876953	175.359543
-7160.920957	3766.930500	1117.739258	48.509308
-7160.920957	3766.930500	1116.601563	202.013168
-7160.920957	3766.930500	1115.462891	71.655434
-7160.920957	3766.930500	1114.324219	16.608973
-7160.920957	3766.930500	1113.186523	4.433439
-7160.920957	3766.930500	1112.046875	80.176308
-7160.920957	3766.930500	1110.908203	71.210716
-7160.920957	3766.930500	1109.769531	58.917156
-7160.920957	3766.930500	1108.629883	10.744359
-7160.920957	3766.930500	1107.490234	-44.374889
-7160.920957	3766.930500	1106.349609	-26.068558
-7160.920957	3766.930500	1105.209961	58.428398
-7160.920957	3766.930500	1104.069336	65.885796
-7160.920957	3766.930500	1102.928711	163.095901
-7160.920957	3766.930500	1101.787109	24.363264
-7160.920957	3766.930500	1100.646484	95.299347
-7160.920957	3766.930500	1099.504883	5.872005
-7160.920957	3766.930500	1098.363281	116.241783
-7160.920957	3766.930500	1097.221680	152.998184
-7160.920957	3766.930500	1096.079102	165.752762
-7160.920957	3766.930500	1094.936523	198.554840
-7160.920957	3766.930500	1093.793945	272.489502
-7160.920957	3766.930500	1092.651367	-0.362538
-7160.920957	3766.930500	1091.507813	292.298218
-7160.920957	3766.930500	1090.364258	149.472809
-7160.920957	3766.930500	1089.220703	191.447037
-7160.920957	3766.930500	1088.077148	155.006226
-7160.920957	3766.930500	1086.933594	129.437622
-7160.920957	3766.930500	1085.789063	157.504486
-7160.920957	3766.930500	1084.644531	80.728012
-7160.920957	3766.930500	1083.499023	8.922187
-7160.920957	3766.930500	1082.354492	-72.095177
-7160.920957	3766.930500	1081.208984	111.434563
-7160.920957	3766.930500	1080.063477	-50.522461
-7160.920957	3766.930500	1078.917969	-24.752213
-7160.920957	3766.930500	1077.771484	133.572861
-7160.920957	3766.930500	1076.625977	214.582809
-7160.920957	3766.930500	1075.479492	63.556095
-7160.920957	3766.930500	1074.332031	103.158348
-7160.920957	3766.930500	1073.185547	284.613007
-7160.920957	3766.930500	1072.038086	230.949417
-7160.920957	3766.930500	1070.890625	128.994690
-7160.920957	3766.930500	1069.743164	100.544922
-7160.920957	3766.930500	1068.594727	97.908470
-7160.920957	3766.930500	1067.447266	93.427170
-7160.920957	3766.930500	1066.298828	132.040756
-7160.920957	3766.930500	1065.149414	221.695160
-7160.920957	3766.930500	1064.000977	172.962341
-7160.920957	3766.930500	1062.851563	154.267731
-7160.920957	3766.930500	1061.702148	52.704308
-7160.920957	3766.930500	1060.552734	48.292282
-7160.920957	3766.930500	1059.402344	81.165054
-7160.920957	3766.930500	1058.252930	-72.213631
-7160.920957	3766.930500	1057.102539	104.415482
-7160.920957	3766.930500	1055.951172	139.348419
-7160.920957	3766.930500	1054.800781	78.379150
-7160.920957	3766.930500	1053.649414	-51.624317
-7160.920957	3766.930500	1052.498047	-145.095703
-7160.920957	3766.930500	1051.346680	43.822132
-7160.920957	3766.930500	1050.194336	180.722397
-7160.920957	3766.930500	1049.042969	-73.450890
-7160.920957	3766.930500	1047.890625	48.730694
-7160.920957	3766.930500	1046.738281	89.882332
-7160.920957	3766.930500	1045.584961	145.125977
-7160.920957	3766.930500	1044.431641	101.533401
-7160.920957	3766.930500	1043.278320	5.074057
-7160.920957	3766.930500	1042.125000	36.402431
-7160.920957	3766.930500	1040.971680	140.162781
-7160.920957	3766.930500	1039.817383	-35.877045
-7160.920957	3766.930500	1038.663086	51.535007
-7160.920957	3766.930500	1037.508789	121.205292
-7160.920957	3766.930500	1036.353516	89.936768
-7160.920957	3766.930500	1035.198242	141.489365
-7160.920957	3766.930500	1034.042969	-128.251495
-7160.920957	3766.930500	1032.887695	16.523996
-7160.920957	3766.930500	1031.732422	221.806747
-7160.920957	3766.930500	1030.576172	211.190186
-7160.920957	3766.930500	1029.419922	19.657434
-7160.920957	3766.930500	1028.263672	52.521202
-7160.920957	3766.930500	1027.106445	47.714211
-7160.920957	3766.930500	1025.949219	189.216721
-7160.920957	3766.930500	1024.792969	-50.740498
-7160.920957	3766.930500	1023.634766	112.861946
-7160.920957	3766.930500	1022.477539	176.515823
-7160.920957	3766.930500	1021.319336	226.613129
-7160.920957	3766.930500	1020.161133	-37.994217
-7160.920957	3766.930500	1019.002930	-208.578491
-7160.920957	3766.930500	1017.843750	105.570274
-7160.920957	3766.930500	1016.684570	-204.465027
-7160.920957	3766.930500	1015.525391	-47.714970
-7160.920957	3766.930500	1014.366211	91.530136
-7160.920957	3766.930500	1013.207031	10.274384
-7160.920957	3766.930500	1012.046875	-43.331905
-7160.920957	3766.930500	1010.886719	-71.553429
-7160.920957	3766.930500	1009.726563	-62.475929
-7160.920957	3766.930500	1008.565430	-28.885164
-7160.920957	3766.930500	1007.404297	235.690536
-7160.920957	3766.930500	1006.243164	39.527733
-7160.920957	3766.930500	1005.082031	-8.394867
-7160.920957	3766.930500	1003.920898	-26.851976
-7160.920957	3766.930500	1002.758789	-40.182152
-7160.920957	3766.930500	1001.596680	-50.245213
-7160.920957	3766.930500	1000.433594	-50.566750
-7160.920957	3766.930500	999.271484	-41.332333
-7160.920957	3766.930500	998.108398	128.901764
-7160.920957	3766.930500	996.945313	-29.379496
-7160.920957	3766.930500	995.782227	187.620926
-7160.920957	3766.930500	994.618164	197.310989
-7160.920957	3766.930500	993.454102	16.108274
-7160.920957	3766.930500	992.290039	35.438747
-7160.920957	3766.930500	991.125977	84.355804
-7160.920957	3766.930500	989.960938	34.488537
-7160.920957	3766.930500	988.796875	305.716003
-7160.920957	3766.930500	987.630859	75.220970
-7160.920957	3766.930500	986.465820	21.088602
-7160.920957	3766.930500	985.300781	216.155960
-7160.920957	3766.930500	984.134766	66.929047
-7160.920957	3766.930500	982.968750	78.690750
-7160.920957	3766.930500	981.801758	-14.136944
-7160.920957	3766.930500	980.635742	59.881786
-7160.920957	3766.930500	979.468750	76.742088
-7160.920957	3766.930500	978.301758	158.745941
-7160.920957	3766.930500	977.133789	105.546242
-7160.920957	3766.930500	975.966797	54.988529
-7160.920957	3766.930500	974.798828	175.754410
-7160.920957	3766.930500	973.630859	-90.602638
-7160.920957	3766.930500	972.461914	38.857327
-7160.920957	3766.930500	971.293945	-75.699272
-7160.920957	3766.930500	970.125000	-220.863861
-7160.920957	3766.930500	968.956055	103.111885
-7160.920957	3766.930500	967.786133	91.830475
-7160.920957	3766.930500	966.617188	39.991577
-7160.920957	3766.930500	965.447266	197.620895
-7160.920957	3766.930500	964.276367	55.671165
-7160.920957	3766.930500	963.106445	59.843567
-7160.920957	3766.930500	961.935547	89.200363
-7160.920957	3766.930500	960.764648	56.652988
-7160.920957	3766.930500	959.593750	20.304117
-7160.920957	3766.930500	958.422852	-50.914490
-7160.920957	3766.930500	957.250977	116.262688
-7160.920957	3766.930500	956.079102	82.266159
-7160.920957	3766.930500	954.907227	150.199554
-7160.920957	3766.930500	953.734375	-21.405500
-7160.920957	3766.930500	952.562500	-90.358009
-7160.920957	3766.930500	951.389648	-111.862930
-7160.920957	3766.930500	950.215820	125.094475
-7160.920957	3766.930500	949.042969	74.003593
-7160.920957	3766.930500	947.869141	135.488510
-7160.920957	3766.930500	946.695313	140.597931
-7160.920957	3766.930500	945.521484	247.024826
-7160.920957	3766.930500	944.346680	172.512634
-7160.920957	3766.930500	943.172852	-38.336384
-7160.920957	3766.930500	941.998047	-3.257610
-7160.920957	3766.930500	940.822266	84.892593
-7160.920957	3766.930500	939.647461	161.019211
-7160.920957	3766.930500	938.471680	48.040642
-7160.920957	3766.930500	937.295898	74.034920
-7160.920957	3766.930500	936.119141	-33.167141
-7160.920957	3766.930500	934.943359	-214.351944
-7160.920957	3766.930500	933.766602	137.125443
-7160.920957	3766.930500	932.589844	163.109161
-7160.920957	3766.930500	931.413086	20.440577
-7160.920957	3766.930500	930.235352	22.692173
-7160.920957	3766.930500	929.057617	-25.289951
-7160.920957	3766.930500	927.879883	33.164181
-7160.920957	3766.930500	926.702148	76.791931
-7160.920957	3766.930500	925.523438	-71.734650
-7160.920957	3766.930500	924.344727	-72.436142
-7160.920957	3766.930500	923.166016	-79.060074
-7160.920957	3766.930500	921.987305	106.361870
-7160.920957	3766.930500	920.807617	120.369385
-7160.920957	3766.930500	919.627930	121.084961
-7160.920957	3766.930500	919.497070	-7.323021
-7160.920957	3766.930500	918.331055	-16.943752
-7160.920957	3766.930500	917.165039	17.718473
-7160.920957	3766.930500	915.999023	270.785278
-7160.920957	3766.930500	914.833008	190.272293
-7160.920957	3766.930500	913.666016	118.638626
-7160.920957	3766.930500	912.499023	67.677658
-7160.920957	3766.930500	911.332031	72.768814
-7160.920957	3766.930500	910.165039	80.800774
-7160.920957	3766.930500	908.997070	-55.630688
-7160.920957	3766.930500	907.830078	37.890339
-7160.920957	3766.930500	906.661133	-125.008530
-7160.920957	3766.930500	905.493164	-134.640930
-7160.920957	3766.930500	904.325195	-279.775848
-7160.920957	3766.930500	903.156250	28.685871
-7160.920957	3766.930500	901.987305	-36.932076
-7160.920957	3766.930500	900.818359	-140.799133
-7160.920957	3766.930500	899.648438	-79.804939
-7160.920957	3766.930500	898.478516	-60.038387
-7160.920957	3766.930500	897.308594	18.556164
-7160.920957	3766.930500	896.138672	153.001160
-7160.920957	3766.930500	894.968750	37.411831
-7160.920957	3766.930500	893.797852	145.325745
-7160.920957	3766.930500	892.626953	59.171589
-7160.920957	3766.930500	891.456055	-121.003304
-7160.920957	3766.930500	890.284180	-57.216053
-7160.920957	3766.930500	889.113281	-31.653696
-7160.920957	3766.930500	887.941406	35.015755
-7160.920957	3766.930500	886.768555	28.235611
-7160.920957	3766.930500	885.596680	-84.246574
-7160.920957	3766.930500	884.423828	-2.946502
-7160.920957	3766.930500	883.250977	134.077209
-7160.920957	3766.930500	882.078125	-69.337112
-7160.920957	3766.930500	880.905273	-70.250046
-7160.920957	3766.930500	879.731445	-41.837475
-7160.920957	3766.930500	878.557617	115.586624
-7160.920957	3766.930500	877.383789	88.232162
-7160.920957	3766.930500	876.209961	69.676712
-7160.920957	3766.930500	875.035156	62.845936
-7160.920957	3766.930500	873.860352	146.844330
-7160.920957	3766.930500	872.685547	2.302681
-7160.920957	3766.930500	871.510742	-42.604263
-7160.920957	3766.930500	870.334961	35.488579
-7160.920957	3766.930500	869.159180	186.735504
-7160.920957	3766.930500	867.983398	171.070541
-7160.920957	3766.930500	866.807617	6.154251
-7160.920957	3766.930500	865.630859	-65.072144
-7160.920957	3766.930500	864.454102	109.447533
-7160.920957	3766.930500	863.277344	58.688305
-7160.920957	3766.930500	862.100586	45.956234
-7160.920957	3766.930500	860.922852	-45.711777
-7160.920957	3766.930500	859.745117	149.093979
-7160.920957	3766.930500	858.567383	-211.422012
-7160.920957	3766.930500	857.389648	214.136185
-7160.920957	3766.930500	856.210938	-29.415770
-7160.920957	3766.930500	855.032227	-88.884956
-7160.920957	3766.930500	853.853516	-104.538559
-7160.920957	3766.930500	852.674805	92.914345
-7160.920957	3766.930500	851.495117	30.515480
-7160.920957	3766.930500	850.315430	35.250256
-7160.920957	3766.930500	849.135742	-111.734451
-7160.920957	3766.930500	847.956055	-4.897243
-7160.920957	3766.930500	846.775391	-3.098281
-7160.920957	3766.930500	845.595703	-135.430054
-7160.920957	3766.930500	844.415039	131.651367
-7160.920957	3766.930500	843.233398	37.218105
-7160.920957	3766.930500	842.052734	-71.754890
-7160.920957	3766.930500	840.871094	-46.680294
-7160.920957	3766.930500	839.689453	-27.449600
-7160.920957	3766.930500	838.506836	87.863106
-7160.920957	3766.930500	837.325195	-152.083603
-7160.920957	3766.930500	836.142578	18.495787
-7160.920957	3766.930500	834.959961	75.493988
-7160.920957	3766.930500	833.777344	-222.523682
-7160.920957	3766.930500	832.593750	29.391575
-7160.920957	3766.930500	831.410156	92.140800
-7160.920957	3766.930500	830.226563	44.354248
-7160.920957	3766.930500	829.042969	191.366257
-7160.920957	3766.930500	827.858398	262.733521
-7160.920957	3766.930500	826.673828	212.005066
-7160.920957	3766.930500	825.489258	108.987381
-7160.920957	3766.930500	824.304688	-17.237127
-7160.920957	3766.930500	823.120117	45.359730
-7160.920957	3766.930500	821.934570	-101.147331
-7160.920957	3766.930500	820.749023	-18.259073
-7160.920957	3766.930500	819.562500	160.366776
-7160.920957	3766.930500	818.376953	-6.419568
-7160.920957	3766.930500	817.190430	-184.753754
-7160.920957	3766.930500	816.003906	141.698456
-7160.920957	3766.930500	814.817383	-39.515709
-7160.920957	3766.930500	813.629883	14.193527
-7160.920957	3766.930500	812.442383	93.959259
-7160.920957	3766.930500	811.254883	8.476170
-7160.920957	3766.930500	810.067383	-146.529297
-7160.920957	3766.930500	808.878906	-58.125122
-7160.920957	3766.930500	807.690430	-114.596146
-7160.920957	3766.930500	806.501953	34.554569
-7160.920957	3766.930500	805.313477	-45.099865
-7160.920957	3766.930500	804.124023	-43.682148
-7160.920957	3766.930500	802.934570	-30.701208
-7160.920957	3766.930500	801.745117	118.256889
-7160.920957	3766.930500	800.555664	-4.795294
-7160.920957	3766.930500	799.365234	239.515594
-7160.920957	3766.930500	798.175781	125.137291
-7160.920957	3766.930500	796.985352	221.845413
-7160.920957	3766.930500	795.793945	136.395660
-7160.920957	3766.930500	794.603516	19.178200
-7160.920957	3766.930500	793.412109	46.462265
-7160.920957	3766.930500	792.220703	-137.157455
-7160.920957	3766.930500	791.028320	245.359299
-7160.920957	3766.930500	789.836914	24.207470
-7160.920957	3766.930500	788.644531	-20.764196
-7160.920957	3766.930500	787.452148	245.993118
-7160.920957	3766.930500	786.258789	-50.095081
-7160.920957	3766.930500	785.066406	8.797084
-7160.920957	3766.930500	783.873047	12.842970
-7160.920957	3766.930500	782.679688	109.158356
-7160.920957	3766.930500	781.485352	133.334198
-7160.920957	3766.930500	780.291992	169.015854
-7160.920957	3766.930500	779.097656	302.659790
-7160.920957	3766.930500	777.903320	24.169870
-7160.920957	3766.930500	776.708008	140.470566
-7160.920957	3766.930500	775.512695	8.995586
-7160.920957	3766.930500	774.318359	113.700203
-7160.920957	3766.930500	773.122070	134.848557
-7160.920957	3766.930500	771.926758	72.493179
-7160.920957	3766.930500	770.730469	-73.313927
-7160.920957	3766.930500	769.534180	-17.661417
-7160.920957	3766.930500	768.337891	78.225990
-7160.920957	3766.930500	767.141602	1.486390
-7160.920957	3766.930500	765.944336	120.299950
-7160.920957	3766.930500	764.747070	72.298286
-7160.920957	3766.930500	763.549805	30.048693
-7160.920957	3766.930500	762.351563	237.817245
-7160.920957	3766.930500	761.154297	-65.944122
-7160.920957	3766.930500	759.956055	98.634232
-7160.920957	3766.930500	758.757813	131.015060
-7160.920957	3766.930500	757.558594	-86.446259
-7160.920957	3766.930500	756.359375	-56.947575
-7160.920957	3766.930500	755.160156	18.444128
-7160.920957	3766.930500	753.960938	151.178482
-7160.920957	3766.930500	752.761719	54.319881
-7160.920957	3766.930500	751.561523	-134.306137
-7160.920957	3766.930500	750.361328	147.447357
-7160.920957	3766.930500	749.160156	130.875153
-7160.920957	3766.930500	747.959961	234.689743
-7160.920957	3766.930500	746.758789	180.811295
-7160.920957	3766.930500	745.557617	69.628990
-7160.920957	3766.930500	744.356445	184.794144
-7160.920957	3766.930500	743.154297	24.927650
-7160.920957	3766.930500	741.952148	-26.073933
-7160.920957	3766.930500	740.750000	131.927536
-7160.920957	3766.930500	739.547852	-56.508896
-7160.920957	3766.930500	738.344727	24.124805
-7160.920957	3766.930500	737.142578	38.898865
-7160.920957	3766.930500	735.939453	170.932419
-7160.920957	3766.930500	734.735352	85.528603
-7160.920957	3766.930500	733.532227	94.503357
-7160.920957	3766.930500	732.328125	-8.039883
-7160.920957	3766.930500	731.124023	112.383011
-7160.920957	3766.930500	729.918945	66.991913
-7160.920957	3766.930500	728.714844	-18.396624
-7160.920957	3766.930500	727.509766	33.339275
-7160.920957	3766.930500	726.303711	42.196144
-7160.920957	3766.930500	725.098633	-180.244232
-7160.920957	3766.930500	723.892578	-45.780945
-7160.920957	3766.930500	722.686523	-74.074265
-7160.920957	3766.930500	721.480469	-31.038233
-7160.920957	3766.930500	720.274414	146.044449
-7160.920957	3766.930500	719.067383	342.998505
-7160.920957	3766.930500	717.860352	103.546120
-7160.920957	3766.930500	716.653320	-18.931370
-7160.920957	3766.930500	715.445313	-50.162941
-7160.920957	3766.930500	714.238281	-152.646088
-7160.920957	3766.930500	713.030273	64.011734
-7160.920957	3766.930500	711.821289	-155.289063
-7160.920957	3766.930500	710.613281	183.707520
-7160.920957	3766.930500	709.404297	158.063904
-7160.920957	3766.930500	708.195313	-64.023010
-7160.920957	3766.930500	706.986328	-177.876892
-7160.920957	3766.930500	705.776367	41.242401
-7160.920957	3766.930500	704.566406	-152.287491
-7160.920957	3766.930500	703.356445	-129.573441
-7160.920957	3766.930500	702.146484	1.180542
-7160.920957	3766.930500	700.935547	165.979218
-7160.920957	3766.930500	699.724609	35.048420
-7160.920957	3766.930500	698.513672	-147.003845
-7160.920957	3766.930500	697.302734	-81.786850
-7160.920957	3766.930500	696.090820	148.156281
-7160.920957	3766.930500	694.878906	88.272156
-7160.920957	3766.930500	693.666992	25.554543
-7160.920957	3766.930500	692.455078	96.284317
-7160.920957	3766.930500	691.242188	152.772827
-7160.920957	3766.930500	690.029297	50.294865
-7160.920957	3766.930500	688.816406	69.847641
-7160.920957	3766.930500	687.602539	100.720009
-7160.920957	3766.930500	686.389648	-7.407540
-7160.920957	3766.930500	685.175781	77.308189
-7160.920957	3766.930500	683.960938	181.814072
-7160.920957	3766.930500	682.747070	-82.204887
-7160.920957	3766.930500	681.532227	-42.919735
-7160.920957	3766.930500	680.317383	118.157379
-7160.920957	3766.930500	679.102539	83.703377
-7160.920957	3766.930500	677.886719	236.155472
-7160.920957	3766.930500	676.670898	60.088017
-7160.920957	3766.930500	675.455078	280.386902
-7160.920957	3766.930500	674.239258	214.728607
-7160.920957	3766.930500	673.022461	67.022980
-7160.920957	3766.930500	671.805664	60.813141
-7160.920957	3766.930500	670.588867	43.276554
-7160.920957	3766.930500	669.372070	141.671234
-7160.920957	3766.930500	668.154297	251.316666
-7160.920957	3766.930500	666.936523	179.998245
-7160.920957	3766.930500	665.718750	-15.648561
-7160.920957	3766.930500	664.500977	-2.147445
-7160.920957	3766.930500	663.282227	81.951920
-7160.920957	3766.930500	662.063477	132.111252
-7160.920957	3766.930500	660.844727	199.176987
-7160.920957	3766.930500	659.625000	20.596493
-7160.920957	3766.930500	658.405273	42.470230
-7160.920957	3766.930500	657.185547	213.878021
-7160.920957	3766.930500	655.965820	139.753250
-7160.920957	3766.930500	654.745117	43.080364
-7160.920957	3766.930500	653.525391	253.821854
-7160.920957	3766.930500	652.303711	182.514603
-7160.920957	3766.930500	651.083008	235.256058
-7160.920957	3766.930500	649.861328	180.868393
-7160.920957	3766.930500	648.640625	120.858604
-7160.920957	3766.930500	647.417969	105.932449
-7160.920957	3766.930500	646.196289	178.314438
-7160.920957	3766.930500	644.973633	171.808640
-7160.920957	3766.930500	643.750977	314.504913
-7160.920957	3766.930500	642.528320	395.207764
-7160.920957	3766.930500	641.305664	273.252441
-7160.920957	3766.930500	640.082031	373.603363
-7160.920957	3766.930500	638.858398	127.916840
-7160.920957	3766.930500	637.634766	200.115067
-7160.920957	3766.930500	636.410156	36.089703
-7160.920957	3766.930500	635.185547	-26.674801
-7160.920957	3766.930500	633.960938	8.947377
-7160.920957	3766.930500	632.736328	58.596214
-7160.920957	3766.930500	631.510742	186.876251
-7160.920957	3766.930500	630.285156	188.702637
-7160.920957	3766.930500	629.059570	187.713440
-7160.920957	3766.930500	627.833984	105.299591
-7160.920957	3766.930500	626.607422	-106.205833
-7160.920957	3766.930500	625.380859	92.098686
-7160.920957	3766.930500	624.154297	121.969353
-7160.920957	3766.930500	622.927734	179.874313
-7160.920957	3766.930500	621.700195	55.451767
-7160.920957	3766.930500	620.472656	256.337677
-7160.920957	3766.930500	619.245117	218.848267
-7160.920957	3766.930500	618.016602	186.974854
-7160.920957	3766.930500	616.788086	149.508133
-7160.920957	3766.930500	615.559570	140.070068
-7160.920957	3766.930500	614.331055	153.041397
-7160.920957	3766.930500	613.101563	95.994431
-7160.920957	3766.930500	611.872070	-129.018356
-7160.920957	3766.930500	610.642578	-23.630394
-7160.920957	3766.930500	609.413086	34.135277
-7160.920957	3766.930500	608.182617	63.894440
-7160.920957	3766.930500	606.952148	-96.583649
-7160.920957	3766.930500	605.721680	-80.793228
-7160.920957	3766.930500	604.491211	-67.804718
-7160.920957	3766.930500	603.259766	45.820438
-7160.920957	3766.930500	602.028320	-69.794983
-7160.920957	3766.930500	600.796875	-90.347855
-7160.920957	3766.930500	599.564453	65.121376
-7160.920957	3766.930500	598.332031	-0.139997
-7160.920957	3766.930500	597.099609	35.165283
-7160.920957	3766.930500	595.867188	0.657246
-7160.920957	3766.930500	594.633789	8.038144
-7160.920957	3766.930500	593.400391	-6.906669
-7160.920957	3766.930500	592.166992	-21.840372
-7160.920957	3766.930500	590.933594	-84.187866
-7160.920957	3766.930500	589.699219	68.256058
-7160.920957	3766.930500	588.464844	47.753777
-7160.920957	3766.930500	587.230469	-34.067841
-7160.920957	3766.930500	585.995117	-15.506022
-7160.920957	3766.930500	584.760742	58.791195
-7160.920957	3766.930500	583.525391	99.628899
-7160.920957	3766.930500	582.289063	40.175941
-7160.920957	3766.930500	581.053711	-10.886654
-7160.920957	3766.930500	579.817383	-0.664899
-7160.920957	3766.930500	578.581055	73.587906
-7160.920957	3766.930500	577.343750	55.972530
-7160.920957	3766.930500	576.107422	-239.880859
-7160.920957	3766.930500	574.870117	-109.957130
-7160.920957	3766.930500	573.631836	106.143051
-7160.920957	3766.930500	572.394531	188.685532
-7160.920957	3766.930500	571.156250	12.644952
-7160.920957	3766.930500	569.917969	-57.684200
-7160.920957	3766.930500	568.679688	163.824402
-7160.920957	3766.930500	567.440430	-31.512579
-7160.920957	3766.930500	566.202148	120.475349
-7160.920957	3766.930500	564.961914	247.413742
-7160.920957	3766.930500	563.722656	185.501953
-7160.920957	3766.930500	562.482422	201.358322
-7160.920957	3766.930500	561.243164	108.980904
-7160.920957	3766.930500	560.001953	-36.067642
-7160.920957	3766.930500	558.761719	63.097439
-7160.920957	3766.930500	557.520508	-51.338539
-7160.920957	3766.930500	556.279297	70.000755
-7160.920957	3766.930500	555.038086	30.500883
-7160.920957	3766.930500	553.795898	251.589417
-7160.920957	3766.930500	552.554688	-26.230946
-7160.920957	3766.930500	551.311523	36.877613
-7160.920957	3766.930500	550.069336	-127.171677
-7160.920957	3766.930500	548.826172	174.144547
-7160.920957	3766.930500	547.583984	104.314682
-7160.920957	3766.930500	546.339844	-67.897545
-7160.920957	3766.930500	545.096680	141.930679
-7160.920957	3766.930500	543.852539	185.657745
-7160.920957	3766.930500	542.608398	-30.670799
-7160.920957	3766.930500	541.364258	132.048279
-7160.920957	3766.930500	540.119141	29.240704
-7160.920957	3766.930500	538.875000	247.211960
-7160.920957	3766.930500	537.628906	243.972153
-7160.920957	3766.930500	536.383789	304.317230
-7160.920957	3766.930500	535.137695	74.540840
-7160.920957	3766.930500	533.892578	52.064480
-7160.920957	3766.930500	532.645508	-42.190918
-7160.920957	3766.930500	531.399414	139.737823
-7160.920957	3766.930500	530.152344	95.236702
-7160.920957	3766.930500	528.905273	235.698135
-7160.920957	3766.930500	527.658203	-4.683449
-7160.920957	3766.930500	526.410156	39.220383
-7160.920957	3766.930500	525.163086	61.061790
-7160.920957	3766.930500	523.914063	16.728785
-7160.920957	3766.930500	522.666016	-113.032227
-7160.920957	3766.930500	521.416992	162.486206
-7160.920957	3766.930500	520.167969	68.618668
-7160.920957	3766.930500	518.918945	16.142519
-7160.920957	3766.930500	517.669922	7.785310
-7160.920957	3766.930500	516.419922	-19.825972
-7160.920957	3766.930500	515.169922	37.955624
-7160.920957	3766.930500	513.919922	73.710625
-7160.920957	3766.930500	512.668945	-88.697647
-7160.920957	3766.930500	511.417969	-11.612573
-7160.920957	3766.930500	510.166992	-36.331596
-7160.920957	3766.930500	508.916016	-242.556488
-7160.920957	3766.930500	507.664063	24.324150
-7160.920957	3766.930500	506.412109	82.158188
-7160.920957	3766.930500	505.160156	38.282875
-7160.920957	3766.930500	503.907227	5.438988
-7160.920957	3766.930500	502.655273	-71.330612
-7160.920957	3766.930500	501.402344	-131.565231
-7160.920957	3766.930500	500.148438	115.845787
-7160.920957	3766.930500	498.895508	-136.571442
-7160.920957	3766.930500	497.641602	105.283951
-7160.920957	3766.930500	496.387695	-138.749710
-7160.920957	3766.930500	495.132813	-9.466344
-7160.920957	3766.930500	493.878906	-94.209686
-7160.920957	3766.930500	492.624023	-69.183502
-7160.920957	3766.930500	491.368164	-129.161057
-7160.920957	3766.930500	490.113281	-257.637115
-7160.920957	3766.930500	488.857422	85.431160
-7160.920957	3766.930500	487.601563	99.506348
-7160.920957	3766.930500	486.344727	-94.643501
-7160.920957	3766.930500	485.088867	-231.166687
-7160.920957	3766.930500	483.832031	70.584648
-7160.920957	3766.930500	482.575195	-33.026196
-7160.920957	3766.930500	481.317383	-73.614021
-7160.920957	3766.930500	480.059570	-26.587072
-7160.920957	3766.930500	478.801758	-198.477676
-7160.920957	3766.930500	477.543945	-58.399246
-7160.920957	3766.930500	476.285156	21.455727
-7160.920957	3766.930500	475.027344	-142.092682
-7160.920957	3766.930500	473.767578	-43.092869
-7160.920957	3766.930500	472.508789	-212.002731
-7160.920957	3766.930500	471.249023	-192.263306
-7160.920957	3766.930500	469.989258	-68.697197
-7160.920957	3766.930500	468.729492	-68.101601
-7160.920957	3766.930500	467.469727	-212.246368
-7160.920957	3766.930500	466.208984	-72.350998
-7160.920957	3766.930500	464.948242	32.000534
-7160.920957	3766.930500	463.686523	-49.281933
-7160.920957	3766.930500	462.425781	98.687675
-7160.920957	3766.930500	461.164063	-20.761322
-7160.920957	3766.930500	459.901367	-129.246597
-7160.920957	3766.930500	458.639648	81.369751
-7160.920957	3766.930500	457.376953	109.228012
-7160.920957	3766.930500	456.114258	104.363625
-7160.920957	3766.930500	454.851563	121.300850
-7160.920957	3766.930500	453.587891	7.445401
-7160.920957	3766.930500	452.324219	95.211998
-7160.920957	3766.930500	451.060547	174.763992
-7160.920957	3766.930500	449.796875	112.687546
-7160.920957	3766.930500	448.532227	91.462433
-7160.920957	3766.930500	447.267578	34.855316
-7160.920957	3766.930500	446.002930	277.579224
-7160.920957	3766.930500	444.737305	259.019073
-7160.920957	3766.930500	443.471680	93.578636
-7160.920957	3766.930500	442.206055	15.212562
-7160.920957	3766.930500	440.940430	-44.105534
-7160.920957	3766.930500	439.673828	239.067200
-7160.920957	3766.930500	438.407227	117.184746
-7160.920957	3766.930500	437.140625	95.860275
-7160.920957	3766.930500	435.873047	71.805038
-7160.920957	3766.930500	434.605469	161.798157
-7160.920957	3766.930500	433.337891	121.397041
-7160.920957	3766.930500	432.070313	37.551620
-7160.920957	3766.930500	430.801758	92.126244
-7160.920957	3766.930500	429.533203	16.401430
-7160.920957	3766.930500	428.264648	125.148788
-7160.920957	3766.930500	426.996094	-2.152088
-7160.920957	3766.930500	425.726563	87.496674
-7160.920957	3766.930500	424.457031	55.068901
-7160.920957	3766.930500	423.186523	117.480301
-7160.920957	3766.930500	421.916992	163.562408
-7160.920957	3766.930500	420.646484	120.170990
-7160.920957	3766.930500	419.375977	152.595245
-7160.920957	3766.930500	418.104492	8.925886
-7160.920957	3766.930500	416.833008	195.587387
-7160.920957	3766.930500	415.561523	76.226944
-7160.920957	3766.930500	414.290039	-48.550247
-7160.920957	3766.930500	413.017578	51.246590
-7160.920957	3766.930500	411.746094	53.552826
-7160.920957	3766.930500	410.472656	-114.598740
-7160.920957	3766.930500	409.200195	144.494095
-7160.920957	3766.930500	407.926758	14.109667
-7160.920957	3766.930500	406.653320	151.293076
-7160.920957	3766.930500	405.379883	88.375809
-7160.920957	3766.930500	404.105469	52.424648
-7160.920957	3766.930500	402.831055	29.915394
-7160.920957	3766.930500	401.556641	145.060257
-7160.920957	3766.930500	400.282227	-7.221053
-7160.920957	3766.930500	399.006836	140.100723
-7160.920957	3766.930500	397.731445	152.331543
-7160.920957	3766.930500	396.456055	180.652695
-7160.920957	3766.930500	395.179688	138.727417
-7160.920957	3766.930500	393.903320	72.448158
-7160.920957	3766.930500	392.626953	-15.474618
-7160.920957	3766.930500	391.350586	-30.677149
-7160.920957	3766.930500	390.073242	142.682983
-7160.920957	3766.930500	388.795898	86.812363
-7160.920957	3766.930500	387.518555	343.362213
-7160.920957	3766.930500	386.240234	171.419205
-7160.920957	3766.930500	384.961914	72.137787
-7160.920957	3766.930500	383.683594	-46.070179
-7160.920957	3766.930500	382.405273	104.817955
-7160.920957	3766.930500	381.125977	188.228668
-7160.920957	3766.930500	379.846680	-27.181448
-7160.920957	3766.930500	378.567383	7.531059
-7160.920957	3766.930500	377.287109	120.075912
-7160.920957	3766.930500	376.006836	36.146042
-7160.920957	3766.930500	374.726563	-23.701468
-7160.920957	3766.930500	373.446289	-78.299210
-7160.920957	3766.930500	372.165039	14.754317
-7160.920957	3766.930500	370.883789	-34.772964
-7160.920957	3766.930500	369.602539	-229.478409
-7160.920957	3766.930500	368.320313	51.024837
-7160.920957	3766.930500	367.039063	-133.212097
-7160.920957	3766.930500	365.755859	-16.931467
-7160.920957	3766.930500	364.473633	109.858833
-7160.920957	3766.930500	363.190430	40.552570
-7160.920957	3766.930500	361.907227	153.490524
-7160.920957	3766.930500	360.624023	22.148335
-7160.920957	3766.930500	359.340820	-7.445659
-7160.920957	3766.930500	358.056641	2.978784
-7160.920957	3766.930500	356.772461	88.237488
-7160.920957	3766.930500	355.487305	15.159885
-7160.920957	3766.930500	354.202148	-1.840313
-7160.920957	3766.930500	352.916992	5.055592
-7160.920957	3766.930500	351.631836	54.573009
-7160.920957	3766.930500	350.346680	-62.135433
-7160.920957	3766.930500	349.060547	85.948662
-7160.920957	3766.930500	347.774414	62.475986
-7160.920957	3766.930500	346.487305	-9.385581
-7160.920957	3766.930500	345.200195	25.533487
-7160.920957	3766.930500	343.913086	-153.743225
-7160.920957	3766.930500	342.625977	-178.122360
-7160.920957	3766.930500	341.338867	0.403518
-7160.920957	3766.930500	340.050781	-13.829828
-7160.920957	3766.930500	338.762695	137.334244
-7160.920957	3766.930500	337.473633	-61.780193
-7160.920957	3766.930500	336.184570	40.706997
-7160.920957	3766.930500	334.895508	-150.839462
-7160.920957	3766.930500	333.606445	41.825977
-7160.920957	3766.930500	332.317383	-102.164886
-7160.920957	3766.930500	331.027344	116.502586
-7160.920957	3766.930500	329.736328	-68.064453
-7160.920957	3766.930500	328.446289	-167.492859
-7160.920957	3766.930500	327.155273	-67.197952
-7160.920957	3766.930500	325.864258	-15.245330
-7160.920957	3766.930500	324.573242	15.045037
-7160.920957	3766.930500	323.281250	-8.305182
-7160.920957	3766.930500	321.989258	-186.498627
-7160.920957	3766.930500	320.697266	34.610046
-7160.920957	3766.930500	319.405273	119.468407
-7160.920957	3766.930500	318.112305	65.487740
-7160.920957	3766.930500	316.819336	-119.249969
-7160.920957	3766.930500	315.526367	28.414774
-7160.920957	3766.930500	314.232422	-21.249641
-7160.920957	3766.930500	312.938477	-10.066706
-7160.920957	3766.930500	311.644531	59.258808
-7160.920957	3766.930500	310.349609	-238.775528
-7160.920957	3766.930500	309.054688	-71.822975
-7160.920957	3766.930500	307.759766	84.046005
-7160.920957	3766.930500	306.464844	58.766788
-7160.920957	3766.930500	305.168945	78.261642
-7160.920957	3766.930500	303.873047	145.163620
-7160.920957	3766.930500	302.577148	262.094208
-7160.920957	3766.930500	301.281250	200.687531
-7160.920957	3766.930500	299.984375	290.185608
