#X		#Y		#Wave		#Intensity
-7399.140479	4179.404667	1999.946289	99.593895
-7399.140479	4179.404667	1998.981445	145.361603
-7399.140479	4179.404667	1998.017578	271.317932
-7399.140479	4179.404667	1997.052734	-155.315109
-7399.140479	4179.404667	1996.088867	84.773476
-7399.140479	4179.404667	1995.124023	213.372482
-7399.140479	4179.404667	1994.159180	-14.655529
-7399.140479	4179.404667	1993.193359	2.620321
-7399.140479	4179.404667	1992.228516	-282.092957
-7399.140479	4179.404667	1991.262695	69.531303
-7399.140479	4179.404667	1990.296875	-115.962875
-7399.140479	4179.404667	1989.331055	72.313446
-7399.140479	4179.404667	1988.365234	176.466019
-7399.140479	4179.404667	1987.398438	77.809143
-7399.140479	4179.404667	1986.432617	169.672302
-7399.140479	4179.404667	1985.465820	241.775711
-7399.140479	4179.404667	1984.499023	98.831177
-7399.140479	4179.404667	1983.532227	-1.990918
-7399.140479	4179.404667	1982.565430	-115.076813
-7399.140479	4179.404667	1981.597656	-250.310913
-7399.140479	4179.404667	1980.629883	-108.770538
-7399.140479	4179.404667	1979.662109	-117.894585
-7399.140479	4179.404667	1978.694336	87.866364
-7399.140479	4179.404667	1977.726563	108.427002
-7399.140479	4179.404667	1976.758789	-95.608498
-7399.140479	4179.404667	1975.790039	-104.553780
-7399.140479	4179.404667	1974.821289	98.755875
-7399.140479	4179.404667	1973.852539	-97.639732
-7399.140479	4179.404667	1972.883789	9.473031
-7399.140479	4179.404667	1971.915039	37.665268
-7399.140479	4179.404667	1970.945313	73.281860
-7399.140479	4179.404667	1969.975586	0.448372
-7399.140479	4179.404667	1969.005859	60.775036
-7399.140479	4179.404667	1968.036133	-19.354465
-7399.140479	4179.404667	1967.066406	223.347870
-7399.140479	4179.404667	1966.096680	-39.013527
-7399.140479	4179.404667	1965.125977	55.883125
-7399.140479	4179.404667	1964.155273	-85.625748
-7399.140479	4179.404667	1963.184570	233.351456
-7399.140479	4179.404667	1962.213867	328.229797
-7399.140479	4179.404667	1961.242188	467.401550
-7399.140479	4179.404667	1960.271484	136.554001
-7399.140479	4179.404667	1959.299805	93.703178
-7399.140479	4179.404667	1958.328125	68.109276
-7399.140479	4179.404667	1957.356445	258.966736
-7399.140479	4179.404667	1956.384766	267.821594
-7399.140479	4179.404667	1955.412109	45.603500
-7399.140479	4179.404667	1954.439453	192.181961
-7399.140479	4179.404667	1953.467773	309.233093
-7399.140479	4179.404667	1952.495117	-163.425827
-7399.140479	4179.404667	1951.521484	39.667362
-7399.140479	4179.404667	1950.548828	-71.683174
-7399.140479	4179.404667	1949.575195	-126.492043
-7399.140479	4179.404667	1948.601563	290.133698
-7399.140479	4179.404667	1947.627930	146.935501
-7399.140479	4179.404667	1946.654297	-64.913490
-7399.140479	4179.404667	1945.680664	113.490326
-7399.140479	4179.404667	1944.706055	112.742966
-7399.140479	4179.404667	1943.732422	31.062523
-7399.140479	4179.404667	1942.757813	160.337021
-7399.140479	4179.404667	1941.783203	63.990650
-7399.140479	4179.404667	1940.807617	-196.562164
-7399.140479	4179.404667	1939.833008	-349.161926
-7399.140479	4179.404667	1938.857422	-195.363876
-7399.140479	4179.404667	1937.881836	102.945641
-7399.140479	4179.404667	1936.906250	70.439850
-7399.140479	4179.404667	1935.930664	-199.625961
-7399.140479	4179.404667	1934.955078	52.013260
-7399.140479	4179.404667	1933.978516	7.315069
-7399.140479	4179.404667	1933.001953	-91.214333
-7399.140479	4179.404667	1932.025391	103.990913
-7399.140479	4179.404667	1931.048828	-53.235733
-7399.140479	4179.404667	1930.072266	-105.201439
-7399.140479	4179.404667	1929.094727	82.574852
-7399.140479	4179.404667	1928.118164	-15.854880
-7399.140479	4179.404667	1927.140625	-21.326817
-7399.140479	4179.404667	1926.163086	-21.907009
-7399.140479	4179.404667	1925.184570	-110.475677
-7399.140479	4179.404667	1924.207031	-184.348053
-7399.140479	4179.404667	1923.228516	-177.561417
-7399.140479	4179.404667	1922.250000	71.068192
-7399.140479	4179.404667	1921.271484	-288.557343
-7399.140479	4179.404667	1920.292969	-37.557625
-7399.140479	4179.404667	1919.314453	-189.503403
-7399.140479	4179.404667	1918.334961	149.262238
-7399.140479	4179.404667	1917.355469	29.063921
-7399.140479	4179.404667	1916.375977	233.450043
-7399.140479	4179.404667	1915.396484	220.623291
-7399.140479	4179.404667	1914.416992	159.012955
-7399.140479	4179.404667	1913.436523	68.158760
-7399.140479	4179.404667	1912.457031	-22.666523
-7399.140479	4179.404667	1911.476563	49.874855
-7399.140479	4179.404667	1910.496094	63.888802
-7399.140479	4179.404667	1909.515625	90.076080
-7399.140479	4179.404667	1908.534180	203.962784
-7399.140479	4179.404667	1907.552734	-149.921326
-7399.140479	4179.404667	1906.572266	-109.112877
-7399.140479	4179.404667	1905.590820	12.034441
-7399.140479	4179.404667	1904.608398	-163.903595
-7399.140479	4179.404667	1903.626953	95.945480
-7399.140479	4179.404667	1902.644531	102.577583
-7399.140479	4179.404667	1901.663086	204.097641
-7399.140479	4179.404667	1900.680664	28.224173
-7399.140479	4179.404667	1899.698242	127.270226
-7399.140479	4179.404667	1898.714844	60.898563
-7399.140479	4179.404667	1897.732422	-5.459631
-7399.140479	4179.404667	1896.749023	13.283253
-7399.140479	4179.404667	1895.765625	-45.768692
-7399.140479	4179.404667	1894.782227	-153.412689
-7399.140479	4179.404667	1893.798828	137.440750
-7399.140479	4179.404667	1892.814453	-60.100338
-7399.140479	4179.404667	1891.831055	-12.274560
-7399.140479	4179.404667	1890.846680	118.085663
-7399.140479	4179.404667	1889.862305	180.404816
-7399.140479	4179.404667	1888.877930	-41.321354
-7399.140479	4179.404667	1887.892578	115.630371
-7399.140479	4179.404667	1886.908203	-64.777306
-7399.140479	4179.404667	1885.922852	2.328146
-7399.140479	4179.404667	1884.937500	125.181831
-7399.140479	4179.404667	1883.952148	-21.216583
-7399.140479	4179.404667	1882.965820	159.760361
-7399.140479	4179.404667	1881.980469	-76.315140
-7399.140479	4179.404667	1880.994141	157.894180
-7399.140479	4179.404667	1880.007813	74.545372
-7399.140479	4179.404667	1879.021484	243.190842
-7399.140479	4179.404667	1878.035156	19.322449
-7399.140479	4179.404667	1877.047852	-204.477356
-7399.140479	4179.404667	1876.061523	-74.669373
-7399.140479	4179.404667	1875.074219	-237.877472
-7399.140479	4179.404667	1874.086914	-146.878082
-7399.140479	4179.404667	1873.098633	-68.030235
-7399.140479	4179.404667	1872.111328	66.420242
-7399.140479	4179.404667	1871.123047	89.517334
-7399.140479	4179.404667	1870.135742	134.355133
-7399.140479	4179.404667	1869.147461	200.920914
-7399.140479	4179.404667	1868.158203	30.489689
-7399.140479	4179.404667	1867.169922	43.827549
-7399.140479	4179.404667	1866.180664	54.722431
-7399.140479	4179.404667	1865.192383	80.090889
-7399.140479	4179.404667	1864.203125	298.712982
-7399.140479	4179.404667	1863.213867	-43.189507
-7399.140479	4179.404667	1862.223633	-20.296097
-7399.140479	4179.404667	1861.234375	2.563834
-7399.140479	4179.404667	1860.244141	264.406494
-7399.140479	4179.404667	1859.253906	267.850281
-7399.140479	4179.404667	1858.263672	524.672180
-7399.140479	4179.404667	1857.273438	23.721582
-7399.140479	4179.404667	1856.282227	234.609772
-7399.140479	4179.404667	1855.291992	310.320129
-7399.140479	4179.404667	1854.300781	-62.566868
-7399.140479	4179.404667	1853.309570	184.309418
-7399.140479	4179.404667	1852.317383	6.796608
-7399.140479	4179.404667	1851.326172	405.356781
-7399.140479	4179.404667	1850.333984	124.199081
-7399.140479	4179.404667	1849.342773	-94.237740
-7399.140479	4179.404667	1848.350586	169.145981
-7399.140479	4179.404667	1847.357422	290.308838
-7399.140479	4179.404667	1846.365234	-79.816086
-7399.140479	4179.404667	1845.372070	46.108982
-7399.140479	4179.404667	1844.379883	504.126556
-7399.140479	4179.404667	1843.386719	290.511871
-7399.140479	4179.404667	1842.393555	161.164932
-7399.140479	4179.404667	1841.399414	-66.793495
-7399.140479	4179.404667	1840.406250	27.599247
-7399.140479	4179.404667	1839.412109	54.596668
-7399.140479	4179.404667	1838.417969	-48.279995
-7399.140479	4179.404667	1837.423828	96.449440
-7399.140479	4179.404667	1836.429688	5.562035
-7399.140479	4179.404667	1835.434570	284.729156
-7399.140479	4179.404667	1834.440430	42.421646
-7399.140479	4179.404667	1833.445313	95.623116
-7399.140479	4179.404667	1832.450195	-62.564922
-7399.140479	4179.404667	1831.454102	257.099091
-7399.140479	4179.404667	1830.458984	161.293274
-7399.140479	4179.404667	1829.462891	240.708038
-7399.140479	4179.404667	1828.466797	276.862976
-7399.140479	4179.404667	1827.470703	99.431641
-7399.140479	4179.404667	1826.474609	-39.582321
-7399.140479	4179.404667	1825.478516	82.848152
-7399.140479	4179.404667	1824.481445	13.360919
-7399.140479	4179.404667	1823.484375	56.549946
-7399.140479	4179.404667	1822.487305	-0.989325
-7399.140479	4179.404667	1821.490234	-144.819656
-7399.140479	4179.404667	1820.493164	173.826248
-7399.140479	4179.404667	1819.495117	123.379082
-7399.140479	4179.404667	1818.498047	192.677856
-7399.140479	4179.404667	1817.500000	75.119301
-7399.140479	4179.404667	1816.500977	115.595634
-7399.140479	4179.404667	1815.502930	-181.518768
-7399.140479	4179.404667	1814.504883	-14.230768
-7399.140479	4179.404667	1813.505859	-2.586476
-7399.140479	4179.404667	1812.506836	-98.647781
-7399.140479	4179.404667	1811.507813	-175.575089
-7399.140479	4179.404667	1810.508789	65.574722
-7399.140479	4179.404667	1809.508789	194.210510
-7399.140479	4179.404667	1808.508789	-83.665031
-7399.140479	4179.404667	1807.508789	130.922485
-7399.140479	4179.404667	1806.508789	-27.421707
-7399.140479	4179.404667	1805.508789	-18.488857
-7399.140479	4179.404667	1804.508789	-95.601456
-7399.140479	4179.404667	1803.507813	39.848362
-7399.140479	4179.404667	1802.506836	-13.447010
-7399.140479	4179.404667	1801.505859	-9.460448
-7399.140479	4179.404667	1800.504883	-296.742950
-7399.140479	4179.404667	1799.502930	-44.573505
-7399.140479	4179.404667	1798.501953	80.989944
-7399.140479	4179.404667	1797.500000	153.979462
-7399.140479	4179.404667	1796.498047	-130.898666
-7399.140479	4179.404667	1795.496094	-196.302826
-7399.140479	4179.404667	1794.493164	-206.885254
-7399.140479	4179.404667	1793.491211	87.644180
-7399.140479	4179.404667	1792.488281	-106.602760
-7399.140479	4179.404667	1791.485352	-300.818024
-7399.140479	4179.404667	1790.482422	-82.810364
-7399.140479	4179.404667	1789.478516	194.621323
-7399.140479	4179.404667	1788.475586	307.570313
-7399.140479	4179.404667	1787.471680	-189.168457
-7399.140479	4179.404667	1786.467773	135.611771
-7399.140479	4179.404667	1785.463867	155.539719
-7399.140479	4179.404667	1784.459961	1.685548
-7399.140479	4179.404667	1783.455078	-240.197128
-7399.140479	4179.404667	1782.450195	112.715790
-7399.140479	4179.404667	1781.445313	4.013978
-7399.140479	4179.404667	1780.440430	-88.044891
-7399.140479	4179.404667	1779.435547	-115.918007
-7399.140479	4179.404667	1778.429688	-241.291382
-7399.140479	4179.404667	1777.424805	-136.119629
-7399.140479	4179.404667	1776.418945	9.364018
-7399.140479	4179.404667	1775.413086	45.456604
-7399.140479	4179.404667	1774.406250	147.997360
-7399.140479	4179.404667	1773.400391	79.461716
-7399.140479	4179.404667	1772.393555	-84.075310
-7399.140479	4179.404667	1771.386719	212.964783
-7399.140479	4179.404667	1770.379883	68.359230
-7399.140479	4179.404667	1769.373047	59.031742
-7399.140479	4179.404667	1768.365234	33.047882
-7399.140479	4179.404667	1767.358398	165.969543
-7399.140479	4179.404667	1766.350586	248.982605
-7399.140479	4179.404667	1765.342773	33.132633
-7399.140479	4179.404667	1764.334961	54.401962
-7399.140479	4179.404667	1763.326172	-73.722160
-7399.140479	4179.404667	1762.318359	331.400726
-7399.140479	4179.404667	1761.309570	113.135788
-7399.140479	4179.404667	1760.300781	-3.225081
-7399.140479	4179.404667	1759.291016	136.219269
-7399.140479	4179.404667	1758.282227	280.303040
-7399.140479	4179.404667	1757.272461	-1.909738
-7399.140479	4179.404667	1756.262695	227.265625
-7399.140479	4179.404667	1755.252930	87.082985
-7399.140479	4179.404667	1754.243164	88.888000
-7399.140479	4179.404667	1753.233398	152.157211
-7399.140479	4179.404667	1752.222656	-11.733910
-7399.140479	4179.404667	1751.211914	34.876125
-7399.140479	4179.404667	1750.201172	-22.622074
-7399.140479	4179.404667	1749.190430	-257.455078
-7399.140479	4179.404667	1748.179688	-0.605352
-7399.140479	4179.404667	1747.167969	-93.660461
-7399.140479	4179.404667	1746.156250	58.996380
-7399.140479	4179.404667	1745.144531	65.083946
-7399.140479	4179.404667	1744.132813	-84.761047
-7399.140479	4179.404667	1743.121094	67.660637
-7399.140479	4179.404667	1742.108398	19.292459
-7399.140479	4179.404667	1741.095703	-22.025875
-7399.140479	4179.404667	1740.083008	-27.975973
-7399.140479	4179.404667	1739.070313	-135.436707
-7399.140479	4179.404667	1738.057617	-101.355278
-7399.140479	4179.404667	1737.043945	-64.979866
-7399.140479	4179.404667	1736.030273	-165.447052
-7399.140479	4179.404667	1735.016602	-223.485291
-7399.140479	4179.404667	1734.002930	-45.811325
-7399.140479	4179.404667	1732.989258	6.826878
-7399.140479	4179.404667	1731.974609	-251.658875
-7399.140479	4179.404667	1730.959961	-302.764313
-7399.140479	4179.404667	1729.945313	41.832951
-7399.140479	4179.404667	1728.930664	42.404449
-7399.140479	4179.404667	1727.916016	19.381947
-7399.140479	4179.404667	1726.900391	-81.373718
-7399.140479	4179.404667	1725.885742	-182.136688
-7399.140479	4179.404667	1724.870117	-207.605347
-7399.140479	4179.404667	1723.853516	-249.588287
-7399.140479	4179.404667	1722.837891	-110.462875
-7399.140479	4179.404667	1721.822266	-206.633972
-7399.140479	4179.404667	1720.805664	-192.301498
-7399.140479	4179.404667	1719.789063	242.818665
-7399.140479	4179.404667	1718.772461	-140.287018
-7399.140479	4179.404667	1717.754883	-112.021706
-7399.140479	4179.404667	1716.738281	310.942871
-7399.140479	4179.404667	1715.720703	38.311871
-7399.140479	4179.404667	1714.703125	-53.403751
-7399.140479	4179.404667	1713.685547	153.110626
-7399.140479	4179.404667	1712.667969	54.271214
-7399.140479	4179.404667	1711.649414	190.164856
-7399.140479	4179.404667	1710.630859	293.099548
-7399.140479	4179.404667	1709.612305	269.235626
-7399.140479	4179.404667	1708.593750	165.567474
-7399.140479	4179.404667	1707.575195	143.989822
-7399.140479	4179.404667	1706.555664	-37.104008
-7399.140479	4179.404667	1705.536133	46.783661
-7399.140479	4179.404667	1704.516602	114.184311
-7399.140479	4179.404667	1703.497070	69.008339
-7399.140479	4179.404667	1702.477539	-53.529163
-7399.140479	4179.404667	1701.457031	126.173943
-7399.140479	4179.404667	1700.437500	183.957062
-7399.140479	4179.404667	1699.416992	-30.008995
-7399.140479	4179.404667	1698.395508	111.980995
-7399.140479	4179.404667	1697.375000	29.126076
-7399.140479	4179.404667	1696.354492	82.022476
-7399.140479	4179.404667	1695.333008	-35.991535
-7399.140479	4179.404667	1694.311523	28.504099
-7399.140479	4179.404667	1693.290039	235.632721
-7399.140479	4179.404667	1692.267578	103.490311
-7399.140479	4179.404667	1691.246094	-35.653275
-7399.140479	4179.404667	1690.223633	119.799866
-7399.140479	4179.404667	1689.201172	247.100067
-7399.140479	4179.404667	1688.178711	149.946869
-7399.140479	4179.404667	1687.155273	62.131447
-7399.140479	4179.404667	1686.132813	156.539246
-7399.140479	4179.404667	1685.109375	360.644806
-7399.140479	4179.404667	1684.085938	76.552200
-7399.140479	4179.404667	1683.062500	135.753967
-7399.140479	4179.404667	1682.039063	108.518036
-7399.140479	4179.404667	1681.014648	417.340485
-7399.140479	4179.404667	1679.990234	478.653656
-7399.140479	4179.404667	1678.965820	311.262634
-7399.140479	4179.404667	1677.941406	360.829895
-7399.140479	4179.404667	1676.916992	375.359772
-7399.140479	4179.404667	1675.891602	394.504395
-7399.140479	4179.404667	1674.866211	269.065521
-7399.140479	4179.404667	1673.840820	66.721214
-7399.140479	4179.404667	1672.815430	365.448517
-7399.140479	4179.404667	1671.790039	361.134521
-7399.140479	4179.404667	1670.763672	314.851257
-7399.140479	4179.404667	1669.737305	21.672035
-7399.140479	4179.404667	1668.710938	396.874664
-7399.140479	4179.404667	1667.684570	445.959564
-7399.140479	4179.404667	1666.658203	415.851044
-7399.140479	4179.404667	1665.630859	567.238159
-7399.140479	4179.404667	1664.603516	388.131866
-7399.140479	4179.404667	1663.576172	316.071777
-7399.140479	4179.404667	1662.548828	681.275146
-7399.140479	4179.404667	1661.520508	497.495361
-7399.140479	4179.404667	1660.493164	483.488708
-7399.140479	4179.404667	1659.464844	564.753784
-7399.140479	4179.404667	1658.436523	573.911072
-7399.140479	4179.404667	1657.408203	601.625244
-7399.140479	4179.404667	1656.378906	705.956238
-7399.140479	4179.404667	1655.350586	742.867615
-7399.140479	4179.404667	1654.321289	640.390930
-7399.140479	4179.404667	1653.291992	858.340271
-7399.140479	4179.404667	1652.261719	769.748230
-7399.140479	4179.404667	1651.232422	702.058960
-7399.140479	4179.404667	1650.202148	710.938721
-7399.140479	4179.404667	1649.171875	919.312988
-7399.140479	4179.404667	1648.141602	907.219421
-7399.140479	4179.404667	1647.111328	774.512085
-7399.140479	4179.404667	1646.080078	725.297668
-7399.140479	4179.404667	1645.049805	917.182861
-7399.140479	4179.404667	1644.018555	742.751465
-7399.140479	4179.404667	1642.987305	816.321777
-7399.140479	4179.404667	1641.955078	1058.969238
-7399.140479	4179.404667	1640.923828	1055.962646
-7399.140479	4179.404667	1639.891602	1071.458130
-7399.140479	4179.404667	1638.859375	1262.910767
-7399.140479	4179.404667	1637.827148	1093.112061
-7399.140479	4179.404667	1636.794922	1217.322510
-7399.140479	4179.404667	1635.761719	1158.635010
-7399.140479	4179.404667	1634.729492	1157.804932
-7399.140479	4179.404667	1633.696289	617.950989
-7399.140479	4179.404667	1632.662109	994.171570
-7399.140479	4179.404667	1631.628906	910.069824
-7399.140479	4179.404667	1630.594727	886.090576
-7399.140479	4179.404667	1629.561523	945.325378
-7399.140479	4179.404667	1628.527344	1122.379272
-7399.140479	4179.404667	1627.493164	1040.562988
-7399.140479	4179.404667	1626.458008	1508.576782
-7399.140479	4179.404667	1625.423828	1258.082642
-7399.140479	4179.404667	1624.388672	1238.593628
-7399.140479	4179.404667	1623.353516	1272.203857
-7399.140479	4179.404667	1622.318359	1148.822021
-7399.140479	4179.404667	1621.282227	1353.193359
-7399.140479	4179.404667	1620.247070	1402.886230
-7399.140479	4179.404667	1619.210938	1228.759399
-7399.140479	4179.404667	1618.174805	1289.965332
-7399.140479	4179.404667	1617.137695	1556.376465
-7399.140479	4179.404667	1616.101563	1836.519897
-7399.140479	4179.404667	1615.064453	1224.418457
-7399.140479	4179.404667	1614.027344	1495.279663
-7399.140479	4179.404667	1612.990234	1581.684082
-7399.140479	4179.404667	1611.953125	1709.521240
-7399.140479	4179.404667	1610.916016	1438.811279
-7399.140479	4179.404667	1609.877930	1693.277832
-7399.140479	4179.404667	1608.839844	1415.757324
-7399.140479	4179.404667	1607.801758	1460.637085
-7399.140479	4179.404667	1606.763672	1480.179565
-7399.140479	4179.404667	1605.724609	1633.176758
-7399.140479	4179.404667	1604.685547	1816.025635
-7399.140479	4179.404667	1603.646484	1442.135010
-7399.140479	4179.404667	1602.607422	1629.552490
-7399.140479	4179.404667	1601.568359	1727.223999
-7399.140479	4179.404667	1600.528320	1700.711426
-7399.140479	4179.404667	1599.489258	1777.655151
-7399.140479	4179.404667	1598.449219	1461.597656
-7399.140479	4179.404667	1597.408203	1207.700073
-7399.140479	4179.404667	1596.368164	1776.294067
-7399.140479	4179.404667	1595.327148	1876.139160
-7399.140479	4179.404667	1594.287109	1567.227295
-7399.140479	4179.404667	1593.246094	1476.538818
-7399.140479	4179.404667	1592.204102	1564.927856
-7399.140479	4179.404667	1591.163086	1527.077759
-7399.140479	4179.404667	1590.121094	1615.443359
-7399.140479	4179.404667	1589.079102	1508.796509
-7399.140479	4179.404667	1588.037109	1500.825439
-7399.140479	4179.404667	1586.995117	1596.059937
-7399.140479	4179.404667	1585.953125	1567.469849
-7399.140479	4179.404667	1584.910156	1612.247681
-7399.140479	4179.404667	1583.867188	1659.317505
-7399.140479	4179.404667	1582.824219	1756.793213
-7399.140479	4179.404667	1581.781250	1808.429688
-7399.140479	4179.404667	1580.737305	1527.947021
-7399.140479	4179.404667	1579.693359	1712.456543
-7399.140479	4179.404667	1578.649414	1722.910278
-7399.140479	4179.404667	1577.605469	1703.621460
-7399.140479	4179.404667	1576.561523	2132.932617
-7399.140479	4179.404667	1575.516602	1832.159668
-7399.140479	4179.404667	1574.472656	2011.960083
-7399.140479	4179.404667	1573.427734	2020.158447
-7399.140479	4179.404667	1572.381836	2456.009521
-7399.140479	4179.404667	1571.336914	2354.420654
-7399.140479	4179.404667	1570.291016	2554.632568
-7399.140479	4179.404667	1569.246094	2926.212158
-7399.140479	4179.404667	1568.200195	2632.719238
-7399.140479	4179.404667	1567.153320	2540.406494
-7399.140479	4179.404667	1566.107422	2404.766602
-7399.140479	4179.404667	1565.060547	2522.691162
-7399.140479	4179.404667	1564.013672	2252.449707
-7399.140479	4179.404667	1562.966797	1770.044312
-7399.140479	4179.404667	1561.919922	1847.036743
-7399.140479	4179.404667	1560.872070	1734.626221
-7399.140479	4179.404667	1559.825195	1517.351807
-7399.140479	4179.404667	1558.777344	1325.283447
-7399.140479	4179.404667	1557.729492	1190.338501
-7399.140479	4179.404667	1556.680664	1349.608887
-7399.140479	4179.404667	1555.632813	1132.715698
-7399.140479	4179.404667	1554.583984	1052.691895
-7399.140479	4179.404667	1553.535156	1218.845337
-7399.140479	4179.404667	1552.486328	1036.387573
-7399.140479	4179.404667	1551.436523	1031.709839
-7399.140479	4179.404667	1550.387695	974.700134
-7399.140479	4179.404667	1549.337891	810.729797
-7399.140479	4179.404667	1548.288086	981.514648
-7399.140479	4179.404667	1547.238281	1049.850342
-7399.140479	4179.404667	1546.187500	1077.237671
-7399.140479	4179.404667	1545.136719	1245.716309
-7399.140479	4179.404667	1544.086914	1082.070435
-7399.140479	4179.404667	1543.035156	1057.253906
-7399.140479	4179.404667	1541.984375	1032.499634
-7399.140479	4179.404667	1540.933594	991.888733
-7399.140479	4179.404667	1539.881836	978.611328
-7399.140479	4179.404667	1538.830078	1115.371216
-7399.140479	4179.404667	1537.778320	968.122314
-7399.140479	4179.404667	1536.725586	1275.295288
-7399.140479	4179.404667	1535.673828	798.857056
-7399.140479	4179.404667	1534.621094	1137.834351
-7399.140479	4179.404667	1533.568359	902.356689
-7399.140479	4179.404667	1532.515625	1086.938232
-7399.140479	4179.404667	1531.461914	924.285339
-7399.140479	4179.404667	1530.409180	981.839111
-7399.140479	4179.404667	1529.355469	499.529175
-7399.140479	4179.404667	1528.301758	584.466919
-7399.140479	4179.404667	1527.247070	476.681213
-7399.140479	4179.404667	1526.193359	330.458313
-7399.140479	4179.404667	1525.138672	488.081787
-7399.140479	4179.404667	1524.083984	169.795700
-7399.140479	4179.404667	1523.029297	293.518646
-7399.140479	4179.404667	1521.974609	-8.625648
-7399.140479	4179.404667	1520.918945	251.095154
-7399.140479	4179.404667	1519.863281	225.457977
-7399.140479	4179.404667	1518.807617	77.637352
-7399.140479	4179.404667	1517.751953	341.901489
-7399.140479	4179.404667	1516.696289	42.618252
-7399.140479	4179.404667	1515.639648	-61.899696
-7399.140479	4179.404667	1514.583008	173.016861
-7399.140479	4179.404667	1513.526367	-12.775952
-7399.140479	4179.404667	1512.469727	-78.580238
-7399.140479	4179.404667	1511.412109	-47.079163
-7399.140479	4179.404667	1510.355469	138.189331
-7399.140479	4179.404667	1509.297852	-196.336990
-7399.140479	4179.404667	1508.240234	135.889603
-7399.140479	4179.404667	1507.181641	129.192032
-7399.140479	4179.404667	1506.124023	-82.958427
-7399.140479	4179.404667	1505.065430	-193.342224
-7399.140479	4179.404667	1504.006836	-310.380676
-7399.140479	4179.404667	1502.948242	-5.194306
-7399.140479	4179.404667	1501.888672	155.506989
-7399.140479	4179.404667	1500.830078	-65.103149
-7399.140479	4179.404667	1499.770508	-84.779076
-7399.140479	4179.404667	1498.710938	-377.282349
-7399.140479	4179.404667	1497.650391	-150.941772
-7399.140479	4179.404667	1496.590820	-102.720978
-7399.140479	4179.404667	1495.530273	-9.364029
-7399.140479	4179.404667	1494.469727	180.943390
-7399.140479	4179.404667	1493.409180	-201.067688
-7399.140479	4179.404667	1492.348633	101.999763
-7399.140479	4179.404667	1491.287109	-124.276375
-7399.140479	4179.404667	1490.225586	70.722565
-7399.140479	4179.404667	1489.164063	49.585026
-7399.140479	4179.404667	1488.102539	46.547855
-7399.140479	4179.404667	1487.041016	75.099861
-7399.140479	4179.404667	1485.978516	229.727478
-7399.140479	4179.404667	1484.916016	267.457184
-7399.140479	4179.404667	1483.853516	172.434021
-7399.140479	4179.404667	1482.791016	183.287384
-7399.140479	4179.404667	1481.727539	351.630951
-7399.140479	4179.404667	1480.664063	-75.667313
-7399.140479	4179.404667	1479.600586	-37.491718
-7399.140479	4179.404667	1478.537109	70.394547
-7399.140479	4179.404667	1477.473633	503.974365
-7399.140479	4179.404667	1476.409180	326.703644
-7399.140479	4179.404667	1475.344727	151.912704
-7399.140479	4179.404667	1474.280273	343.035645
-7399.140479	4179.404667	1473.215820	475.984985
-7399.140479	4179.404667	1472.151367	824.280701
-7399.140479	4179.404667	1471.085938	548.812683
-7399.140479	4179.404667	1470.020508	901.410828
-7399.140479	4179.404667	1468.955078	588.684937
-7399.140479	4179.404667	1467.888672	710.267273
-7399.140479	4179.404667	1466.823242	962.109436
-7399.140479	4179.404667	1465.756836	900.706177
-7399.140479	4179.404667	1464.690430	673.500183
-7399.140479	4179.404667	1463.624023	1062.280884
-7399.140479	4179.404667	1462.556641	1112.671387
-7399.140479	4179.404667	1461.490234	830.137695
-7399.140479	4179.404667	1460.422852	1025.929565
-7399.140479	4179.404667	1459.355469	492.821014
-7399.140479	4179.404667	1458.287109	1285.314453
-7399.140479	4179.404667	1457.219727	1197.603760
-7399.140479	4179.404667	1456.151367	1251.896240
-7399.140479	4179.404667	1455.083008	749.590759
-7399.140479	4179.404667	1454.014648	1237.883057
-7399.140479	4179.404667	1452.945313	980.199341
-7399.140479	4179.404667	1451.876953	887.744629
-7399.140479	4179.404667	1450.807617	863.476868
-7399.140479	4179.404667	1449.738281	860.868774
-7399.140479	4179.404667	1448.668945	1071.440186
-7399.140479	4179.404667	1447.598633	1093.024048
-7399.140479	4179.404667	1446.528320	1127.727661
-7399.140479	4179.404667	1445.458008	1255.752319
-7399.140479	4179.404667	1444.387695	1043.000610
-7399.140479	4179.404667	1443.317383	1116.238525
-7399.140479	4179.404667	1442.246094	1276.764404
-7399.140479	4179.404667	1441.174805	1162.532471
-7399.140479	4179.404667	1440.103516	985.988159
-7399.140479	4179.404667	1439.032227	810.749084
-7399.140479	4179.404667	1437.960938	845.543823
-7399.140479	4179.404667	1436.888672	1256.444702
-7399.140479	4179.404667	1435.816406	1082.731445
-7399.140479	4179.404667	1434.744141	1157.045166
-7399.140479	4179.404667	1433.670898	888.137878
-7399.140479	4179.404667	1432.598633	797.441406
-7399.140479	4179.404667	1431.525391	665.110352
-7399.140479	4179.404667	1430.452148	863.844177
-7399.140479	4179.404667	1429.378906	857.502258
-7399.140479	4179.404667	1428.304688	816.942810
-7399.140479	4179.404667	1427.231445	639.133728
-7399.140479	4179.404667	1426.157227	760.447327
-7399.140479	4179.404667	1425.083008	585.342224
-7399.140479	4179.404667	1424.007813	720.448364
-7399.140479	4179.404667	1422.933594	646.473083
-7399.140479	4179.404667	1421.858398	807.506287
-7399.140479	4179.404667	1420.783203	658.900635
-7399.140479	4179.404667	1419.708008	687.607422
-7399.140479	4179.404667	1418.631836	486.661285
-7399.140479	4179.404667	1417.555664	788.691956
-7399.140479	4179.404667	1416.479492	845.412415
-7399.140479	4179.404667	1415.403320	873.894897
-7399.140479	4179.404667	1414.327148	409.196106
-7399.140479	4179.404667	1413.250000	765.692993
-7399.140479	4179.404667	1412.173828	440.413147
-7399.140479	4179.404667	1411.096680	740.290100
-7399.140479	4179.404667	1410.018555	495.931610
-7399.140479	4179.404667	1408.941406	368.591187
-7399.140479	4179.404667	1407.863281	643.322083
-7399.140479	4179.404667	1406.785156	501.194458
-7399.140479	4179.404667	1405.707031	488.046112
-7399.140479	4179.404667	1404.628906	509.263702
-7399.140479	4179.404667	1403.549805	297.791382
-7399.140479	4179.404667	1402.470703	357.130463
-7399.140479	4179.404667	1401.391602	427.351135
-7399.140479	4179.404667	1400.312500	263.107666
-7399.140479	4179.404667	1399.233398	403.401886
-7399.140479	4179.404667	1398.153320	316.883514
-7399.140479	4179.404667	1397.073242	555.658752
-7399.140479	4179.404667	1395.993164	415.260651
-7399.140479	4179.404667	1394.913086	428.976227
-7399.140479	4179.404667	1393.832031	507.857880
-7399.140479	4179.404667	1392.750977	521.782837
-7399.140479	4179.404667	1391.669922	313.321289
-7399.140479	4179.404667	1390.588867	338.189911
-7399.140479	4179.404667	1389.506836	591.476563
-7399.140479	4179.404667	1388.425781	448.546082
-7399.140479	4179.404667	1387.343750	405.406555
-7399.140479	4179.404667	1386.261719	232.071335
-7399.140479	4179.404667	1385.178711	383.204803
-7399.140479	4179.404667	1384.096680	470.225708
-7399.140479	4179.404667	1383.013672	489.531525
-7399.140479	4179.404667	1381.930664	399.619537
-7399.140479	4179.404667	1380.846680	572.845947
-7399.140479	4179.404667	1379.763672	598.327881
-7399.140479	4179.404667	1378.679688	638.916626
-7399.140479	4179.404667	1377.595703	730.111084
-7399.140479	4179.404667	1376.511719	929.922729
-7399.140479	4179.404667	1375.427734	1032.628540
-7399.140479	4179.404667	1374.342773	1085.595093
-7399.140479	4179.404667	1373.257813	985.445801
-7399.140479	4179.404667	1372.172852	940.133423
-7399.140479	4179.404667	1371.087891	1039.933105
-7399.140479	4179.404667	1370.001953	1134.858154
-7399.140479	4179.404667	1368.916992	978.795227
-7399.140479	4179.404667	1367.831055	1120.749756
-7399.140479	4179.404667	1366.744141	1296.803833
-7399.140479	4179.404667	1365.658203	1598.966553
-7399.140479	4179.404667	1364.571289	1262.622681
-7399.140479	4179.404667	1363.484375	979.840271
-7399.140479	4179.404667	1362.397461	1158.661743
-7399.140479	4179.404667	1361.310547	1184.563477
-7399.140479	4179.404667	1360.222656	1022.172607
-7399.140479	4179.404667	1359.135742	1048.467896
-7399.140479	4179.404667	1358.047852	1178.187012
-7399.140479	4179.404667	1356.958984	1124.974121
-7399.140479	4179.404667	1355.871094	1106.754883
-7399.140479	4179.404667	1354.782227	1050.200684
-7399.140479	4179.404667	1353.693359	1123.021118
-7399.140479	4179.404667	1352.604492	1009.473694
-7399.140479	4179.404667	1351.515625	975.553955
-7399.140479	4179.404667	1350.425781	956.038452
-7399.140479	4179.404667	1349.335938	889.741699
-7399.140479	4179.404667	1348.246094	1100.800049
-7399.140479	4179.404667	1347.156250	868.921997
-7399.140479	4179.404667	1346.066406	644.052368
-7399.140479	4179.404667	1344.975586	626.710266
-7399.140479	4179.404667	1343.884766	774.207886
-7399.140479	4179.404667	1342.793945	1102.659912
-7399.140479	4179.404667	1341.702148	1318.470459
-7399.140479	4179.404667	1340.611328	1115.894531
-7399.140479	4179.404667	1339.519531	1080.283569
-7399.140479	4179.404667	1338.427734	1235.886963
-7399.140479	4179.404667	1337.334961	1402.486084
-7399.140479	4179.404667	1336.243164	1039.366211
-7399.140479	4179.404667	1335.150391	885.676636
-7399.140479	4179.404667	1334.057617	1051.236572
-7399.140479	4179.404667	1332.964844	657.518066
-7399.140479	4179.404667	1331.871094	519.074341
-7399.140479	4179.404667	1330.778320	738.246582
-7399.140479	4179.404667	1329.684570	450.667267
-7399.140479	4179.404667	1328.590820	248.049591
-7399.140479	4179.404667	1327.496094	389.017365
-7399.140479	4179.404667	1326.402344	651.338928
-7399.140479	4179.404667	1325.307617	458.127747
-7399.140479	4179.404667	1324.212891	292.756866
-7399.140479	4179.404667	1323.117188	464.100403
-7399.140479	4179.404667	1322.022461	350.627167
-7399.140479	4179.404667	1320.926758	416.132874
-7399.140479	4179.404667	1319.831055	505.916046
-7399.140479	4179.404667	1318.735352	399.134277
-7399.140479	4179.404667	1317.638672	444.937347
-7399.140479	4179.404667	1316.542969	512.748413
-7399.140479	4179.404667	1315.446289	803.957642
-7399.140479	4179.404667	1314.349609	721.064331
-7399.140479	4179.404667	1313.251953	802.742004
-7399.140479	4179.404667	1312.155273	716.768677
-7399.140479	4179.404667	1311.057617	1059.626831
-7399.140479	4179.404667	1309.959961	1214.772461
-7399.140479	4179.404667	1308.862305	1059.714844
-7399.140479	4179.404667	1307.763672	1017.725159
-7399.140479	4179.404667	1306.665039	1326.005493
-7399.140479	4179.404667	1305.566406	1371.977051
-7399.140479	4179.404667	1304.467773	1012.638977
-7399.140479	4179.404667	1303.369141	1186.250488
-7399.140479	4179.404667	1302.269531	916.046143
-7399.140479	4179.404667	1301.169922	1117.698242
-7399.140479	4179.404667	1300.070313	906.522461
-7399.140479	4179.404667	1298.970703	836.422363
-7399.140479	4179.404667	1297.870117	797.972717
-7399.140479	4179.404667	1296.769531	1000.206848
-7399.140479	4179.404667	1295.668945	1049.805542
-7399.140479	4179.404667	1294.568359	904.897095
-7399.140479	4179.404667	1293.466797	863.335754
-7399.140479	4179.404667	1292.366211	667.283752
-7399.140479	4179.404667	1291.264648	647.526672
-7399.140479	4179.404667	1290.162109	900.856934
-7399.140479	4179.404667	1289.060547	654.516479
-7399.140479	4179.404667	1287.958008	924.730713
-7399.140479	4179.404667	1286.855469	725.770508
-7399.140479	4179.404667	1285.752930	708.309021
-7399.140479	4179.404667	1284.650391	542.136414
-7399.140479	4179.404667	1283.546875	582.982544
-7399.140479	4179.404667	1282.444336	466.627686
-7399.140479	4179.404667	1281.339844	354.954315
-7399.140479	4179.404667	1280.236328	614.140869
-7399.140479	4179.404667	1279.132813	437.606720
-7399.140479	4179.404667	1278.028320	605.005615
-7399.140479	4179.404667	1276.923828	546.557190
-7399.140479	4179.404667	1275.819336	446.104523
-7399.140479	4179.404667	1274.713867	307.043671
-7399.140479	4179.404667	1273.608398	327.324615
-7399.140479	4179.404667	1272.503906	646.283936
-7399.140479	4179.404667	1271.397461	414.637299
-7399.140479	4179.404667	1270.291992	414.847046
-7399.140479	4179.404667	1269.185547	234.708572
-7399.140479	4179.404667	1268.080078	97.569267
-7399.140479	4179.404667	1266.972656	102.180611
-7399.140479	4179.404667	1265.866211	375.045319
-7399.140479	4179.404667	1264.759766	39.956341
-7399.140479	4179.404667	1263.652344	130.318039
-7399.140479	4179.404667	1262.544922	369.497864
-7399.140479	4179.404667	1261.436523	204.287064
-7399.140479	4179.404667	1260.329102	253.911270
-7399.140479	4179.404667	1259.220703	240.967453
-7399.140479	4179.404667	1258.112305	-26.173216
-7399.140479	4179.404667	1257.003906	-60.751801
-7399.140479	4179.404667	1255.895508	84.551170
-7399.140479	4179.404667	1254.786133	-41.209229
-7399.140479	4179.404667	1253.676758	80.652496
-7399.140479	4179.404667	1252.567383	-59.233639
-7399.140479	4179.404667	1251.458008	-140.339188
-7399.140479	4179.404667	1250.347656	-43.487846
-7399.140479	4179.404667	1249.237305	60.072136
-7399.140479	4179.404667	1248.126953	108.544991
-7399.140479	4179.404667	1247.016602	-140.392410
-7399.140479	4179.404667	1245.905273	-82.577286
-7399.140479	4179.404667	1244.793945	20.398207
-7399.140479	4179.404667	1243.682617	35.480488
-7399.140479	4179.404667	1242.571289	-67.184814
-7399.140479	4179.404667	1241.459961	-99.772377
-7399.140479	4179.404667	1240.347656	-26.636883
-7399.140479	4179.404667	1239.235352	-148.144058
-7399.140479	4179.404667	1238.123047	53.908382
-7399.140479	4179.404667	1237.009766	140.345505
-7399.140479	4179.404667	1235.897461	88.532196
-7399.140479	4179.404667	1234.784180	-31.249645
-7399.140479	4179.404667	1233.670898	-111.695946
-7399.140479	4179.404667	1232.556641	-22.782328
-7399.140479	4179.404667	1231.443359	-198.735870
-7399.140479	4179.404667	1230.329102	-7.836998
-7399.140479	4179.404667	1229.214844	-0.203612
-7399.140479	4179.404667	1228.099609	22.911413
-7399.140479	4179.404667	1226.985352	2.558189
-7399.140479	4179.404667	1225.870117	44.290409
-7399.140479	4179.404667	1224.754883	-86.093857
-7399.140479	4179.404667	1223.639648	25.656487
-7399.140479	4179.404667	1222.523438	-149.394943
-7399.140479	4179.404667	1221.408203	-90.866158
-7399.140479	4179.404667	1220.291992	158.177551
-7399.140479	4179.404667	1219.174805	236.292038
-7399.140479	4179.404667	1218.058594	-33.427910
-7399.140479	4179.404667	1216.941406	82.620483
-7399.140479	4179.404667	1215.824219	125.094536
-7399.140479	4179.404667	1214.707031	128.509064
-7399.140479	4179.404667	1213.589844	170.296799
-7399.140479	4179.404667	1212.471680	135.636719
-7399.140479	4179.404667	1211.353516	19.887285
-7399.140479	4179.404667	1210.235352	225.561356
-7399.140479	4179.404667	1209.117188	233.177628
-7399.140479	4179.404667	1207.998047	493.036163
-7399.140479	4179.404667	1206.878906	341.854858
-7399.140479	4179.404667	1205.759766	450.177734
-7399.140479	4179.404667	1204.640625	365.488403
-7399.140479	4179.404667	1203.520508	696.893616
-7399.140479	4179.404667	1202.401367	606.714539
-7399.140479	4179.404667	1201.281250	614.294434
-7399.140479	4179.404667	1200.160156	674.855042
-7399.140479	4179.404667	1199.040039	445.553680
-7399.140479	4179.404667	1197.918945	496.116272
-7399.140479	4179.404667	1196.797852	406.696198
-7399.140479	4179.404667	1195.676758	371.946960
-7399.140479	4179.404667	1194.555664	395.067047
-7399.140479	4179.404667	1193.433594	230.967865
-7399.140479	4179.404667	1192.311523	203.679779
-7399.140479	4179.404667	1191.189453	220.039902
-7399.140479	4179.404667	1190.066406	161.766296
-7399.140479	4179.404667	1188.944336	264.580688
-7399.140479	4179.404667	1187.821289	48.398499
-7399.140479	4179.404667	1186.698242	125.720825
-7399.140479	4179.404667	1185.574219	84.351677
-7399.140479	4179.404667	1184.451172	164.917114
-7399.140479	4179.404667	1183.327148	55.357933
-7399.140479	4179.404667	1182.203125	140.561981
-7399.140479	4179.404667	1181.078125	66.471924
-7399.140479	4179.404667	1179.954102	36.299847
-7399.140479	4179.404667	1178.829102	200.019684
-7399.140479	4179.404667	1177.704102	-129.037292
-7399.140479	4179.404667	1176.579102	50.128201
-7399.140479	4179.404667	1175.453125	2.986124
-7399.140479	4179.404667	1174.327148	-302.317749
-7399.140479	4179.404667	1173.201172	-45.495018
-7399.140479	4179.404667	1172.075195	-104.821808
-7399.140479	4179.404667	1170.949219	24.687523
-7399.140479	4179.404667	1169.822266	114.596626
-7399.140479	4179.404667	1168.695313	124.678337
-7399.140479	4179.404667	1167.568359	-229.060196
-7399.140479	4179.404667	1166.440430	33.966114
-7399.140479	4179.404667	1165.313477	-148.924698
-7399.140479	4179.404667	1164.185547	-239.468063
-7399.140479	4179.404667	1163.057617	-252.959351
-7399.140479	4179.404667	1161.928711	-162.831131
-7399.140479	4179.404667	1160.800781	-123.812050
-7399.140479	4179.404667	1159.671875	-43.020489
-7399.140479	4179.404667	1158.541992	-125.234482
-7399.140479	4179.404667	1157.413086	95.944427
-7399.140479	4179.404667	1156.283203	-17.031950
-7399.140479	4179.404667	1155.154297	-236.684967
-7399.140479	4179.404667	1154.023438	-236.772324
-7399.140479	4179.404667	1152.893555	-29.023849
-7399.140479	4179.404667	1151.763672	27.772337
-7399.140479	4179.404667	1150.632813	16.560448
-7399.140479	4179.404667	1149.501953	42.393097
-7399.140479	4179.404667	1148.370117	-46.203518
-7399.140479	4179.404667	1147.239258	-23.857758
-7399.140479	4179.404667	1146.107422	-25.079165
-7399.140479	4179.404667	1144.975586	-196.871628
-7399.140479	4179.404667	1143.843750	-137.274765
-7399.140479	4179.404667	1142.710938	-150.748825
-7399.140479	4179.404667	1141.578125	-182.643280
-7399.140479	4179.404667	1140.445313	-261.859039
-7399.140479	4179.404667	1139.312500	-348.125183
-7399.140479	4179.404667	1138.178711	8.295245
-7399.140479	4179.404667	1137.045898	58.352608
-7399.140479	4179.404667	1135.912109	-28.218990
-7399.140479	4179.404667	1134.777344	0.497828
-7399.140479	4179.404667	1133.643555	40.615753
-7399.140479	4179.404667	1132.508789	99.202705
-7399.140479	4179.404667	1131.374023	412.341187
-7399.140479	4179.404667	1130.239258	386.542419
-7399.140479	4179.404667	1129.104492	748.151733
-7399.140479	4179.404667	1127.968750	389.786560
-7399.140479	4179.404667	1126.833008	645.496399
-7399.140479	4179.404667	1125.697266	637.132446
-7399.140479	4179.404667	1124.560547	296.815979
-7399.140479	4179.404667	1123.424805	369.652618
-7399.140479	4179.404667	1122.288086	545.412781
-7399.140479	4179.404667	1121.151367	316.800537
-7399.140479	4179.404667	1120.013672	224.964386
-7399.140479	4179.404667	1118.876953	154.623550
-7399.140479	4179.404667	1117.739258	171.446655
-7399.140479	4179.404667	1116.601563	25.979656
-7399.140479	4179.404667	1115.462891	21.240154
-7399.140479	4179.404667	1114.324219	26.321074
-7399.140479	4179.404667	1113.186523	66.391685
-7399.140479	4179.404667	1112.046875	-39.102139
-7399.140479	4179.404667	1110.908203	150.498520
-7399.140479	4179.404667	1109.769531	129.551056
-7399.140479	4179.404667	1108.629883	310.457611
-7399.140479	4179.404667	1107.490234	84.887604
-7399.140479	4179.404667	1106.349609	23.502872
-7399.140479	4179.404667	1105.209961	287.818604
-7399.140479	4179.404667	1104.069336	387.596313
-7399.140479	4179.404667	1102.928711	341.985992
-7399.140479	4179.404667	1101.787109	283.018585
-7399.140479	4179.404667	1100.646484	412.270111
-7399.140479	4179.404667	1099.504883	600.810425
-7399.140479	4179.404667	1098.363281	598.266296
-7399.140479	4179.404667	1097.221680	318.123810
-7399.140479	4179.404667	1096.079102	341.175385
-7399.140479	4179.404667	1094.936523	511.151489
-7399.140479	4179.404667	1093.793945	88.315620
-7399.140479	4179.404667	1092.651367	354.050354
-7399.140479	4179.404667	1091.507813	345.487793
-7399.140479	4179.404667	1090.364258	356.385956
-7399.140479	4179.404667	1089.220703	97.668541
-7399.140479	4179.404667	1088.077148	322.554077
-7399.140479	4179.404667	1086.933594	311.321716
-7399.140479	4179.404667	1085.789063	336.738098
-7399.140479	4179.404667	1084.644531	360.333069
-7399.140479	4179.404667	1083.499023	183.736465
-7399.140479	4179.404667	1082.354492	366.815033
-7399.140479	4179.404667	1081.208984	-21.505333
-7399.140479	4179.404667	1080.063477	148.492859
-7399.140479	4179.404667	1078.917969	454.520447
-7399.140479	4179.404667	1077.771484	273.576233
-7399.140479	4179.404667	1076.625977	402.656403
-7399.140479	4179.404667	1075.479492	98.246902
-7399.140479	4179.404667	1074.332031	149.181549
-7399.140479	4179.404667	1073.185547	310.380585
-7399.140479	4179.404667	1072.038086	161.431320
-7399.140479	4179.404667	1070.890625	253.555618
-7399.140479	4179.404667	1069.743164	249.552261
-7399.140479	4179.404667	1068.594727	195.163895
-7399.140479	4179.404667	1067.447266	472.965607
-7399.140479	4179.404667	1066.298828	160.809906
-7399.140479	4179.404667	1065.149414	408.659485
-7399.140479	4179.404667	1064.000977	477.173767
-7399.140479	4179.404667	1062.851563	703.833862
-7399.140479	4179.404667	1061.702148	685.090637
-7399.140479	4179.404667	1060.552734	443.233063
-7399.140479	4179.404667	1059.402344	206.068008
-7399.140479	4179.404667	1058.252930	153.956528
-7399.140479	4179.404667	1057.102539	208.844162
-7399.140479	4179.404667	1055.951172	254.670258
-7399.140479	4179.404667	1054.800781	156.095001
-7399.140479	4179.404667	1053.649414	438.032471
-7399.140479	4179.404667	1052.498047	235.222946
-7399.140479	4179.404667	1051.346680	477.088379
-7399.140479	4179.404667	1050.194336	196.107132
-7399.140479	4179.404667	1049.042969	178.256302
-7399.140479	4179.404667	1047.890625	323.898712
-7399.140479	4179.404667	1046.738281	166.341370
-7399.140479	4179.404667	1045.584961	284.751892
-7399.140479	4179.404667	1044.431641	202.624908
-7399.140479	4179.404667	1043.278320	393.829651
-7399.140479	4179.404667	1042.125000	146.274490
-7399.140479	4179.404667	1040.971680	365.951721
-7399.140479	4179.404667	1039.817383	287.495605
-7399.140479	4179.404667	1038.663086	415.752563
-7399.140479	4179.404667	1037.508789	-80.296791
-7399.140479	4179.404667	1036.353516	344.208252
-7399.140479	4179.404667	1035.198242	580.434570
-7399.140479	4179.404667	1034.042969	400.019104
-7399.140479	4179.404667	1032.887695	410.542053
-7399.140479	4179.404667	1031.732422	253.474365
-7399.140479	4179.404667	1030.576172	342.215576
-7399.140479	4179.404667	1029.419922	701.503174
-7399.140479	4179.404667	1028.263672	465.862701
-7399.140479	4179.404667	1027.106445	349.219055
-7399.140479	4179.404667	1025.949219	-36.879627
-7399.140479	4179.404667	1024.792969	364.988098
-7399.140479	4179.404667	1023.634766	217.693649
-7399.140479	4179.404667	1022.477539	380.717651
-7399.140479	4179.404667	1021.319336	171.975616
-7399.140479	4179.404667	1020.161133	96.240623
-7399.140479	4179.404667	1019.002930	-148.399200
-7399.140479	4179.404667	1017.843750	-443.712677
-7399.140479	4179.404667	1016.684570	252.835098
-7399.140479	4179.404667	1015.525391	-23.986069
-7399.140479	4179.404667	1014.366211	-72.338020
-7399.140479	4179.404667	1013.207031	-24.698978
-7399.140479	4179.404667	1012.046875	-130.400467
-7399.140479	4179.404667	1010.886719	-259.296021
-7399.140479	4179.404667	1009.726563	-42.000538
-7399.140479	4179.404667	1008.565430	-215.740219
-7399.140479	4179.404667	1007.404297	-39.794212
-7399.140479	4179.404667	1006.243164	181.995987
-7399.140479	4179.404667	1005.082031	214.240097
-7399.140479	4179.404667	1003.920898	132.666931
-7399.140479	4179.404667	1002.758789	42.177116
-7399.140479	4179.404667	1001.596680	109.218277
-7399.140479	4179.404667	1000.433594	60.411652
-7399.140479	4179.404667	999.271484	314.515717
-7399.140479	4179.404667	998.108398	-33.201981
-7399.140479	4179.404667	996.945313	114.845001
-7399.140479	4179.404667	995.782227	416.918732
-7399.140479	4179.404667	994.618164	402.847351
-7399.140479	4179.404667	993.454102	261.494751
-7399.140479	4179.404667	992.290039	-34.023430
-7399.140479	4179.404667	991.125977	-211.734192
-7399.140479	4179.404667	989.960938	151.905304
-7399.140479	4179.404667	988.796875	317.181580
-7399.140479	4179.404667	987.630859	243.565994
-7399.140479	4179.404667	986.465820	388.232483
-7399.140479	4179.404667	985.300781	-18.268364
-7399.140479	4179.404667	984.134766	223.832687
-7399.140479	4179.404667	982.968750	29.724163
-7399.140479	4179.404667	981.801758	327.981842
-7399.140479	4179.404667	980.635742	176.133011
-7399.140479	4179.404667	979.468750	163.854233
-7399.140479	4179.404667	978.301758	-103.876755
-7399.140479	4179.404667	977.133789	-29.912025
-7399.140479	4179.404667	975.966797	-42.975964
-7399.140479	4179.404667	974.798828	119.064758
-7399.140479	4179.404667	973.630859	72.561066
-7399.140479	4179.404667	972.461914	-119.679077
-7399.140479	4179.404667	971.293945	93.241310
-7399.140479	4179.404667	970.125000	64.910385
-7399.140479	4179.404667	968.956055	2.786615
-7399.140479	4179.404667	967.786133	61.699345
-7399.140479	4179.404667	966.617188	-269.672943
-7399.140479	4179.404667	965.447266	-70.478683
-7399.140479	4179.404667	964.276367	-43.582752
-7399.140479	4179.404667	963.106445	188.347794
-7399.140479	4179.404667	961.935547	-99.448921
-7399.140479	4179.404667	960.764648	288.462372
-7399.140479	4179.404667	959.593750	120.480530
-7399.140479	4179.404667	958.422852	257.246613
-7399.140479	4179.404667	957.250977	225.800583
-7399.140479	4179.404667	956.079102	-35.525635
-7399.140479	4179.404667	954.907227	4.502720
-7399.140479	4179.404667	953.734375	-120.582222
-7399.140479	4179.404667	952.562500	73.162376
-7399.140479	4179.404667	951.389648	-282.594208
-7399.140479	4179.404667	950.215820	-38.095768
-7399.140479	4179.404667	949.042969	14.098718
-7399.140479	4179.404667	947.869141	33.943539
-7399.140479	4179.404667	946.695313	-200.041748
-7399.140479	4179.404667	945.521484	46.154995
-7399.140479	4179.404667	944.346680	-31.012436
-7399.140479	4179.404667	943.172852	-79.831284
-7399.140479	4179.404667	941.998047	6.031388
-7399.140479	4179.404667	940.822266	68.755608
-7399.140479	4179.404667	939.647461	-73.853935
-7399.140479	4179.404667	938.471680	-213.493744
-7399.140479	4179.404667	937.295898	171.541458
-7399.140479	4179.404667	936.119141	343.232666
-7399.140479	4179.404667	934.943359	17.693327
-7399.140479	4179.404667	933.766602	-19.437321
-7399.140479	4179.404667	932.589844	-59.375778
-7399.140479	4179.404667	931.413086	17.606859
-7399.140479	4179.404667	930.235352	88.901611
-7399.140479	4179.404667	929.057617	48.854511
-7399.140479	4179.404667	927.879883	-13.871941
-7399.140479	4179.404667	926.702148	-193.597687
-7399.140479	4179.404667	925.523438	-22.576317
-7399.140479	4179.404667	924.344727	128.456238
-7399.140479	4179.404667	923.166016	253.760101
-7399.140479	4179.404667	921.987305	88.345406
-7399.140479	4179.404667	920.807617	-11.479033
-7399.140479	4179.404667	919.627930	-2.228375
-7399.140479	4179.404667	919.497070	106.254204
-7399.140479	4179.404667	918.331055	231.336411
-7399.140479	4179.404667	917.165039	-167.592987
-7399.140479	4179.404667	915.999023	34.329620
-7399.140479	4179.404667	914.833008	176.377991
-7399.140479	4179.404667	913.666016	39.474098
-7399.140479	4179.404667	912.499023	189.975876
-7399.140479	4179.404667	911.332031	30.336754
-7399.140479	4179.404667	910.165039	-103.657791
-7399.140479	4179.404667	908.997070	-47.091743
-7399.140479	4179.404667	907.830078	103.244759
-7399.140479	4179.404667	906.661133	-152.930176
-7399.140479	4179.404667	905.493164	128.064362
-7399.140479	4179.404667	904.325195	-193.392746
-7399.140479	4179.404667	903.156250	93.157387
-7399.140479	4179.404667	901.987305	-194.102997
-7399.140479	4179.404667	900.818359	-78.060333
-7399.140479	4179.404667	899.648438	114.578194
-7399.140479	4179.404667	898.478516	216.299545
-7399.140479	4179.404667	897.308594	-33.903851
-7399.140479	4179.404667	896.138672	-65.561035
-7399.140479	4179.404667	894.968750	24.753988
-7399.140479	4179.404667	893.797852	-72.146500
-7399.140479	4179.404667	892.626953	191.074097
-7399.140479	4179.404667	891.456055	272.749969
-7399.140479	4179.404667	890.284180	119.148415
-7399.140479	4179.404667	889.113281	297.128052
-7399.140479	4179.404667	887.941406	118.064995
-7399.140479	4179.404667	886.768555	349.781677
-7399.140479	4179.404667	885.596680	275.541077
-7399.140479	4179.404667	884.423828	-25.179234
-7399.140479	4179.404667	883.250977	381.900757
-7399.140479	4179.404667	882.078125	-37.605484
-7399.140479	4179.404667	880.905273	326.847076
-7399.140479	4179.404667	879.731445	94.226768
-7399.140479	4179.404667	878.557617	164.335068
-7399.140479	4179.404667	877.383789	-37.070084
-7399.140479	4179.404667	876.209961	-255.363556
-7399.140479	4179.404667	875.035156	-140.020493
-7399.140479	4179.404667	873.860352	119.397346
-7399.140479	4179.404667	872.685547	-112.943947
-7399.140479	4179.404667	871.510742	-119.200523
-7399.140479	4179.404667	870.334961	-198.890549
-7399.140479	4179.404667	869.159180	74.418335
-7399.140479	4179.404667	867.983398	-121.047249
-7399.140479	4179.404667	866.807617	-90.630989
-7399.140479	4179.404667	865.630859	154.248489
-7399.140479	4179.404667	864.454102	-55.240120
-7399.140479	4179.404667	863.277344	-143.352661
-7399.140479	4179.404667	862.100586	-59.397686
-7399.140479	4179.404667	860.922852	-189.780243
-7399.140479	4179.404667	859.745117	-162.241776
-7399.140479	4179.404667	858.567383	-47.348701
-7399.140479	4179.404667	857.389648	-17.052221
-7399.140479	4179.404667	856.210938	500.648834
-7399.140479	4179.404667	855.032227	437.854797
-7399.140479	4179.404667	853.853516	161.042160
-7399.140479	4179.404667	852.674805	53.273407
-7399.140479	4179.404667	851.495117	196.096481
-7399.140479	4179.404667	850.315430	102.428101
-7399.140479	4179.404667	849.135742	180.442032
-7399.140479	4179.404667	847.956055	-17.299320
-7399.140479	4179.404667	846.775391	97.263649
-7399.140479	4179.404667	845.595703	-184.763992
-7399.140479	4179.404667	844.415039	-81.481689
-7399.140479	4179.404667	843.233398	-121.608368
-7399.140479	4179.404667	842.052734	-74.609222
-7399.140479	4179.404667	840.871094	118.484535
-7399.140479	4179.404667	839.689453	142.927536
-7399.140479	4179.404667	838.506836	-150.035202
-7399.140479	4179.404667	837.325195	-347.415710
-7399.140479	4179.404667	836.142578	143.147232
-7399.140479	4179.404667	834.959961	156.300858
-7399.140479	4179.404667	833.777344	82.439476
-7399.140479	4179.404667	832.593750	70.331444
-7399.140479	4179.404667	831.410156	89.077087
-7399.140479	4179.404667	830.226563	-4.386344
-7399.140479	4179.404667	829.042969	216.239731
-7399.140479	4179.404667	827.858398	-213.657272
-7399.140479	4179.404667	826.673828	-4.307109
-7399.140479	4179.404667	825.489258	39.600483
-7399.140479	4179.404667	824.304688	164.731232
-7399.140479	4179.404667	823.120117	354.225464
-7399.140479	4179.404667	821.934570	526.829834
-7399.140479	4179.404667	820.749023	284.933807
-7399.140479	4179.404667	819.562500	73.924530
-7399.140479	4179.404667	818.376953	417.173065
-7399.140479	4179.404667	817.190430	167.016632
-7399.140479	4179.404667	816.003906	277.864227
-7399.140479	4179.404667	814.817383	36.199829
-7399.140479	4179.404667	813.629883	152.596115
-7399.140479	4179.404667	812.442383	53.630009
-7399.140479	4179.404667	811.254883	46.939781
-7399.140479	4179.404667	810.067383	-82.742546
-7399.140479	4179.404667	808.878906	419.136047
-7399.140479	4179.404667	807.690430	180.445480
-7399.140479	4179.404667	806.501953	246.290802
-7399.140479	4179.404667	805.313477	225.519196
-7399.140479	4179.404667	804.124023	151.693359
-7399.140479	4179.404667	802.934570	192.327774
-7399.140479	4179.404667	801.745117	177.107498
-7399.140479	4179.404667	800.555664	122.807449
-7399.140479	4179.404667	799.365234	-104.445351
-7399.140479	4179.404667	798.175781	72.788841
-7399.140479	4179.404667	796.985352	-101.422958
-7399.140479	4179.404667	795.793945	-161.272751
-7399.140479	4179.404667	794.603516	-126.357803
-7399.140479	4179.404667	793.412109	86.880928
-7399.140479	4179.404667	792.220703	-237.735352
-7399.140479	4179.404667	791.028320	25.535414
-7399.140479	4179.404667	789.836914	-201.509384
-7399.140479	4179.404667	788.644531	-305.961304
-7399.140479	4179.404667	787.452148	-196.036209
-7399.140479	4179.404667	786.258789	-222.562469
-7399.140479	4179.404667	785.066406	-199.021851
-7399.140479	4179.404667	783.873047	-125.435814
-7399.140479	4179.404667	782.679688	134.460312
-7399.140479	4179.404667	781.485352	-22.933479
-7399.140479	4179.404667	780.291992	-52.397602
-7399.140479	4179.404667	779.097656	240.591156
-7399.140479	4179.404667	777.903320	24.811222
-7399.140479	4179.404667	776.708008	-199.241867
-7399.140479	4179.404667	775.512695	10.157617
-7399.140479	4179.404667	774.318359	63.883949
-7399.140479	4179.404667	773.122070	87.016678
-7399.140479	4179.404667	771.926758	254.472931
-7399.140479	4179.404667	770.730469	-283.238220
-7399.140479	4179.404667	769.534180	-154.697586
-7399.140479	4179.404667	768.337891	-303.718384
-7399.140479	4179.404667	767.141602	-86.531746
-7399.140479	4179.404667	765.944336	216.509811
-7399.140479	4179.404667	764.747070	-76.801353
-7399.140479	4179.404667	763.549805	104.043800
-7399.140479	4179.404667	762.351563	10.370402
-7399.140479	4179.404667	761.154297	385.023956
-7399.140479	4179.404667	759.956055	66.819489
-7399.140479	4179.404667	758.757813	269.479187
-7399.140479	4179.404667	757.558594	111.978439
-7399.140479	4179.404667	756.359375	214.775787
-7399.140479	4179.404667	755.160156	-75.621727
-7399.140479	4179.404667	753.960938	204.216766
-7399.140479	4179.404667	752.761719	-66.783752
-7399.140479	4179.404667	751.561523	-55.521179
-7399.140479	4179.404667	750.361328	82.926117
-7399.140479	4179.404667	749.160156	-13.794941
-7399.140479	4179.404667	747.959961	-60.765797
-7399.140479	4179.404667	746.758789	19.394081
-7399.140479	4179.404667	745.557617	-212.834930
-7399.140479	4179.404667	744.356445	-138.311066
-7399.140479	4179.404667	743.154297	101.885780
-7399.140479	4179.404667	741.952148	96.109177
-7399.140479	4179.404667	740.750000	4.670788
-7399.140479	4179.404667	739.547852	266.604950
-7399.140479	4179.404667	738.344727	117.093315
-7399.140479	4179.404667	737.142578	262.867737
-7399.140479	4179.404667	735.939453	364.378174
-7399.140479	4179.404667	734.735352	225.797485
-7399.140479	4179.404667	733.532227	340.939880
-7399.140479	4179.404667	732.328125	108.544067
-7399.140479	4179.404667	731.124023	248.350739
-7399.140479	4179.404667	729.918945	250.228668
-7399.140479	4179.404667	728.714844	370.527618
-7399.140479	4179.404667	727.509766	129.796448
-7399.140479	4179.404667	726.303711	305.036072
-7399.140479	4179.404667	725.098633	-1.811559
-7399.140479	4179.404667	723.892578	71.368446
-7399.140479	4179.404667	722.686523	290.346466
-7399.140479	4179.404667	721.480469	401.822815
-7399.140479	4179.404667	720.274414	160.974442
-7399.140479	4179.404667	719.067383	250.282852
-7399.140479	4179.404667	717.860352	218.458130
-7399.140479	4179.404667	716.653320	57.327557
-7399.140479	4179.404667	715.445313	182.122513
-7399.140479	4179.404667	714.238281	-135.762863
-7399.140479	4179.404667	713.030273	194.978653
-7399.140479	4179.404667	711.821289	33.687866
-7399.140479	4179.404667	710.613281	127.855019
-7399.140479	4179.404667	709.404297	18.669781
-7399.140479	4179.404667	708.195313	285.633759
-7399.140479	4179.404667	706.986328	173.550827
-7399.140479	4179.404667	705.776367	-73.053207
-7399.140479	4179.404667	704.566406	248.399643
-7399.140479	4179.404667	703.356445	-86.077728
-7399.140479	4179.404667	702.146484	399.652588
-7399.140479	4179.404667	700.935547	26.721600
-7399.140479	4179.404667	699.724609	7.557194
-7399.140479	4179.404667	698.513672	-93.925362
-7399.140479	4179.404667	697.302734	-17.308832
-7399.140479	4179.404667	696.090820	-36.714417
-7399.140479	4179.404667	694.878906	-94.555717
-7399.140479	4179.404667	693.666992	-81.249458
-7399.140479	4179.404667	692.455078	-128.284637
-7399.140479	4179.404667	691.242188	128.506378
-7399.140479	4179.404667	690.029297	163.380203
-7399.140479	4179.404667	688.816406	189.935776
-7399.140479	4179.404667	687.602539	396.969421
-7399.140479	4179.404667	686.389648	226.318085
-7399.140479	4179.404667	685.175781	244.356247
-7399.140479	4179.404667	683.960938	229.477600
-7399.140479	4179.404667	682.747070	258.248047
-7399.140479	4179.404667	681.532227	21.787809
-7399.140479	4179.404667	680.317383	154.235031
-7399.140479	4179.404667	679.102539	272.866486
-7399.140479	4179.404667	677.886719	-34.762260
-7399.140479	4179.404667	676.670898	130.084885
-7399.140479	4179.404667	675.455078	212.850769
-7399.140479	4179.404667	674.239258	303.669586
-7399.140479	4179.404667	673.022461	435.286102
-7399.140479	4179.404667	671.805664	373.012970
-7399.140479	4179.404667	670.588867	291.564545
-7399.140479	4179.404667	669.372070	188.229401
-7399.140479	4179.404667	668.154297	8.478587
-7399.140479	4179.404667	666.936523	513.002136
-7399.140479	4179.404667	665.718750	354.854218
-7399.140479	4179.404667	664.500977	272.970062
-7399.140479	4179.404667	663.282227	340.867249
-7399.140479	4179.404667	662.063477	444.040924
-7399.140479	4179.404667	660.844727	244.762146
-7399.140479	4179.404667	659.625000	489.282745
-7399.140479	4179.404667	658.405273	390.586426
-7399.140479	4179.404667	657.185547	446.958008
-7399.140479	4179.404667	655.965820	315.440216
-7399.140479	4179.404667	654.745117	240.999374
-7399.140479	4179.404667	653.525391	90.319077
-7399.140479	4179.404667	652.303711	241.447159
-7399.140479	4179.404667	651.083008	408.712311
-7399.140479	4179.404667	649.861328	121.847954
-7399.140479	4179.404667	648.640625	364.940796
-7399.140479	4179.404667	647.417969	148.627518
-7399.140479	4179.404667	646.196289	375.089508
-7399.140479	4179.404667	644.973633	210.245132
-7399.140479	4179.404667	643.750977	433.657471
-7399.140479	4179.404667	642.528320	374.523743
-7399.140479	4179.404667	641.305664	565.011902
-7399.140479	4179.404667	640.082031	359.110840
-7399.140479	4179.404667	638.858398	421.780701
-7399.140479	4179.404667	637.634766	481.597656
-7399.140479	4179.404667	636.410156	693.144226
-7399.140479	4179.404667	635.185547	427.287079
-7399.140479	4179.404667	633.960938	787.623901
-7399.140479	4179.404667	632.736328	581.258362
-7399.140479	4179.404667	631.510742	713.573608
-7399.140479	4179.404667	630.285156	745.481506
-7399.140479	4179.404667	629.059570	1026.447144
-7399.140479	4179.404667	627.833984	456.892670
-7399.140479	4179.404667	626.607422	680.718384
-7399.140479	4179.404667	625.380859	300.727448
-7399.140479	4179.404667	624.154297	378.132996
-7399.140479	4179.404667	622.927734	401.281097
-7399.140479	4179.404667	621.700195	102.405830
-7399.140479	4179.404667	620.472656	317.396698
-7399.140479	4179.404667	619.245117	351.021667
-7399.140479	4179.404667	618.016602	265.575226
-7399.140479	4179.404667	616.788086	490.871033
-7399.140479	4179.404667	615.559570	256.591187
-7399.140479	4179.404667	614.331055	227.622910
-7399.140479	4179.404667	613.101563	217.461670
-7399.140479	4179.404667	611.872070	-208.673203
-7399.140479	4179.404667	610.642578	129.331192
-7399.140479	4179.404667	609.413086	261.937378
-7399.140479	4179.404667	608.182617	-137.272491
-7399.140479	4179.404667	606.952148	49.080528
-7399.140479	4179.404667	605.721680	162.415115
-7399.140479	4179.404667	604.491211	359.204651
-7399.140479	4179.404667	603.259766	108.192200
-7399.140479	4179.404667	602.028320	97.114571
-7399.140479	4179.404667	600.796875	85.939384
-7399.140479	4179.404667	599.564453	263.292358
-7399.140479	4179.404667	598.332031	68.678192
-7399.140479	4179.404667	597.099609	-72.083839
-7399.140479	4179.404667	595.867188	142.591156
-7399.140479	4179.404667	594.633789	20.516207
-7399.140479	4179.404667	593.400391	272.565582
-7399.140479	4179.404667	592.166992	-40.759697
-7399.140479	4179.404667	590.933594	-4.255505
-7399.140479	4179.404667	589.699219	96.697639
-7399.140479	4179.404667	588.464844	143.722488
-7399.140479	4179.404667	587.230469	247.101364
-7399.140479	4179.404667	585.995117	68.055214
-7399.140479	4179.404667	584.760742	104.028343
-7399.140479	4179.404667	583.525391	-15.970200
-7399.140479	4179.404667	582.289063	-313.334930
-7399.140479	4179.404667	581.053711	-140.582932
-7399.140479	4179.404667	579.817383	-306.374451
-7399.140479	4179.404667	578.581055	191.008713
-7399.140479	4179.404667	577.343750	-111.863159
-7399.140479	4179.404667	576.107422	-36.261456
-7399.140479	4179.404667	574.870117	-11.761866
-7399.140479	4179.404667	573.631836	125.314529
-7399.140479	4179.404667	572.394531	18.187057
-7399.140479	4179.404667	571.156250	12.920340
-7399.140479	4179.404667	569.917969	270.316223
-7399.140479	4179.404667	568.679688	176.393723
-7399.140479	4179.404667	567.440430	227.144699
-7399.140479	4179.404667	566.202148	205.466827
-7399.140479	4179.404667	564.961914	6.924328
-7399.140479	4179.404667	563.722656	-30.911125
-7399.140479	4179.404667	562.482422	-47.383720
-7399.140479	4179.404667	561.243164	86.002403
-7399.140479	4179.404667	560.001953	-24.296516
-7399.140479	4179.404667	558.761719	-51.655388
-7399.140479	4179.404667	557.520508	86.796127
-7399.140479	4179.404667	556.279297	-186.772171
-7399.140479	4179.404667	555.038086	128.022217
-7399.140479	4179.404667	553.795898	-43.962006
-7399.140479	4179.404667	552.554688	-47.527088
-7399.140479	4179.404667	551.311523	66.430840
-7399.140479	4179.404667	550.069336	396.709747
-7399.140479	4179.404667	548.826172	390.216553
-7399.140479	4179.404667	547.583984	252.819336
-7399.140479	4179.404667	546.339844	94.062958
-7399.140479	4179.404667	545.096680	63.472389
-7399.140479	4179.404667	543.852539	227.680908
-7399.140479	4179.404667	542.608398	-40.502464
-7399.140479	4179.404667	541.364258	-7.146317
-7399.140479	4179.404667	540.119141	4.810889
-7399.140479	4179.404667	538.875000	467.403625
-7399.140479	4179.404667	537.628906	41.937973
-7399.140479	4179.404667	536.383789	-100.826164
-7399.140479	4179.404667	535.137695	-73.007797
-7399.140479	4179.404667	533.892578	-69.203148
-7399.140479	4179.404667	532.645508	-68.106422
-7399.140479	4179.404667	531.399414	140.704651
-7399.140479	4179.404667	530.152344	-121.898911
-7399.140479	4179.404667	528.905273	113.401894
-7399.140479	4179.404667	527.658203	258.089203
-7399.140479	4179.404667	526.410156	128.607117
-7399.140479	4179.404667	525.163086	105.588051
-7399.140479	4179.404667	523.914063	-95.660614
-7399.140479	4179.404667	522.666016	27.599977
-7399.140479	4179.404667	521.416992	-53.931293
-7399.140479	4179.404667	520.167969	-23.798773
-7399.140479	4179.404667	518.918945	-65.442322
-7399.140479	4179.404667	517.669922	-48.620182
-7399.140479	4179.404667	516.419922	148.812668
-7399.140479	4179.404667	515.169922	170.874298
-7399.140479	4179.404667	513.919922	110.607147
-7399.140479	4179.404667	512.668945	209.638565
-7399.140479	4179.404667	511.417969	-126.648270
-7399.140479	4179.404667	510.166992	-139.056717
-7399.140479	4179.404667	508.916016	-159.419510
-7399.140479	4179.404667	507.664063	-235.476639
-7399.140479	4179.404667	506.412109	-96.698616
-7399.140479	4179.404667	505.160156	-37.514004
-7399.140479	4179.404667	503.907227	-227.518387
-7399.140479	4179.404667	502.655273	-176.267487
-7399.140479	4179.404667	501.402344	203.507324
-7399.140479	4179.404667	500.148438	-259.257507
-7399.140479	4179.404667	498.895508	-43.809307
-7399.140479	4179.404667	497.641602	-254.754639
-7399.140479	4179.404667	496.387695	5.617090
-7399.140479	4179.404667	495.132813	-112.598679
-7399.140479	4179.404667	493.878906	266.731171
-7399.140479	4179.404667	492.624023	32.132717
-7399.140479	4179.404667	491.368164	-249.967834
-7399.140479	4179.404667	490.113281	-206.664307
-7399.140479	4179.404667	488.857422	-2.094820
-7399.140479	4179.404667	487.601563	183.895813
-7399.140479	4179.404667	486.344727	-230.081848
-7399.140479	4179.404667	485.088867	-96.938507
-7399.140479	4179.404667	483.832031	-132.904388
-7399.140479	4179.404667	482.575195	-31.510319
-7399.140479	4179.404667	481.317383	17.039436
-7399.140479	4179.404667	480.059570	231.889572
-7399.140479	4179.404667	478.801758	-54.806313
-7399.140479	4179.404667	477.543945	223.320129
-7399.140479	4179.404667	476.285156	-7.836220
-7399.140479	4179.404667	475.027344	177.861603
-7399.140479	4179.404667	473.767578	-32.077827
-7399.140479	4179.404667	472.508789	24.367538
-7399.140479	4179.404667	471.249023	-0.926155
-7399.140479	4179.404667	469.989258	-163.243149
-7399.140479	4179.404667	468.729492	-11.952444
-7399.140479	4179.404667	467.469727	-137.315796
-7399.140479	4179.404667	466.208984	-120.421890
-7399.140479	4179.404667	464.948242	-219.393539
-7399.140479	4179.404667	463.686523	-284.112762
-7399.140479	4179.404667	462.425781	-119.833015
-7399.140479	4179.404667	461.164063	-176.677505
-7399.140479	4179.404667	459.901367	-94.088783
-7399.140479	4179.404667	458.639648	83.138138
-7399.140479	4179.404667	457.376953	-28.999535
-7399.140479	4179.404667	456.114258	174.372086
-7399.140479	4179.404667	454.851563	-82.364212
-7399.140479	4179.404667	453.587891	99.835571
-7399.140479	4179.404667	452.324219	216.231384
-7399.140479	4179.404667	451.060547	117.137001
-7399.140479	4179.404667	449.796875	86.319038
-7399.140479	4179.404667	448.532227	102.712959
-7399.140479	4179.404667	447.267578	161.044647
-7399.140479	4179.404667	446.002930	9.322167
-7399.140479	4179.404667	444.737305	172.462448
-7399.140479	4179.404667	443.471680	324.962158
-7399.140479	4179.404667	442.206055	309.451569
-7399.140479	4179.404667	440.940430	335.812592
-7399.140479	4179.404667	439.673828	-57.412285
-7399.140479	4179.404667	438.407227	291.204285
-7399.140479	4179.404667	437.140625	215.027710
-7399.140479	4179.404667	435.873047	246.175385
-7399.140479	4179.404667	434.605469	164.544647
-7399.140479	4179.404667	433.337891	64.480331
-7399.140479	4179.404667	432.070313	139.735153
-7399.140479	4179.404667	430.801758	91.760681
-7399.140479	4179.404667	429.533203	41.023510
-7399.140479	4179.404667	428.264648	147.126816
-7399.140479	4179.404667	426.996094	143.124588
-7399.140479	4179.404667	425.726563	159.839355
-7399.140479	4179.404667	424.457031	79.586288
-7399.140479	4179.404667	423.186523	438.341064
-7399.140479	4179.404667	421.916992	375.903809
-7399.140479	4179.404667	420.646484	308.009918
-7399.140479	4179.404667	419.375977	93.579033
-7399.140479	4179.404667	418.104492	278.601898
-7399.140479	4179.404667	416.833008	170.770935
-7399.140479	4179.404667	415.561523	229.780792
-7399.140479	4179.404667	414.290039	311.942841
-7399.140479	4179.404667	413.017578	36.184391
-7399.140479	4179.404667	411.746094	115.061111
-7399.140479	4179.404667	410.472656	175.254959
-7399.140479	4179.404667	409.200195	201.144531
-7399.140479	4179.404667	407.926758	356.987030
-7399.140479	4179.404667	406.653320	84.804756
-7399.140479	4179.404667	405.379883	85.969902
-7399.140479	4179.404667	404.105469	261.257416
-7399.140479	4179.404667	402.831055	55.622490
-7399.140479	4179.404667	401.556641	175.165955
-7399.140479	4179.404667	400.282227	46.745888
-7399.140479	4179.404667	399.006836	152.146988
-7399.140479	4179.404667	397.731445	415.719910
-7399.140479	4179.404667	396.456055	14.975093
-7399.140479	4179.404667	395.179688	571.260376
-7399.140479	4179.404667	393.903320	80.949089
-7399.140479	4179.404667	392.626953	-58.712036
-7399.140479	4179.404667	391.350586	-149.596085
-7399.140479	4179.404667	390.073242	328.141876
-7399.140479	4179.404667	388.795898	194.157486
-7399.140479	4179.404667	387.518555	101.038368
-7399.140479	4179.404667	386.240234	139.633255
-7399.140479	4179.404667	384.961914	263.097168
-7399.140479	4179.404667	383.683594	151.937256
-7399.140479	4179.404667	382.405273	413.790771
-7399.140479	4179.404667	381.125977	-249.464264
-7399.140479	4179.404667	379.846680	33.818657
-7399.140479	4179.404667	378.567383	305.610168
-7399.140479	4179.404667	377.287109	109.322586
-7399.140479	4179.404667	376.006836	345.154602
-7399.140479	4179.404667	374.726563	253.091782
-7399.140479	4179.404667	373.446289	30.321966
-7399.140479	4179.404667	372.165039	55.248451
-7399.140479	4179.404667	370.883789	107.454216
-7399.140479	4179.404667	369.602539	8.128110
-7399.140479	4179.404667	368.320313	114.720383
-7399.140479	4179.404667	367.039063	152.632477
-7399.140479	4179.404667	365.755859	227.916214
-7399.140479	4179.404667	364.473633	-122.713081
-7399.140479	4179.404667	363.190430	317.154755
-7399.140479	4179.404667	361.907227	255.983093
-7399.140479	4179.404667	360.624023	495.902710
-7399.140479	4179.404667	359.340820	-72.749634
-7399.140479	4179.404667	358.056641	75.905815
-7399.140479	4179.404667	356.772461	362.361816
-7399.140479	4179.404667	355.487305	55.057587
-7399.140479	4179.404667	354.202148	-44.656666
-7399.140479	4179.404667	352.916992	-27.379890
-7399.140479	4179.404667	351.631836	55.096340
-7399.140479	4179.404667	350.346680	-143.329376
-7399.140479	4179.404667	349.060547	-31.407173
-7399.140479	4179.404667	347.774414	-6.827179
-7399.140479	4179.404667	346.487305	-64.484177
-7399.140479	4179.404667	345.200195	-106.304291
-7399.140479	4179.404667	343.913086	-52.405472
-7399.140479	4179.404667	342.625977	-245.885513
-7399.140479	4179.404667	341.338867	79.066513
-7399.140479	4179.404667	340.050781	-150.307800
-7399.140479	4179.404667	338.762695	-109.001534
-7399.140479	4179.404667	337.473633	135.680786
-7399.140479	4179.404667	336.184570	22.045555
-7399.140479	4179.404667	334.895508	49.868771
-7399.140479	4179.404667	333.606445	-192.985291
-7399.140479	4179.404667	332.317383	-454.144135
-7399.140479	4179.404667	331.027344	-139.231842
-7399.140479	4179.404667	329.736328	20.520021
-7399.140479	4179.404667	328.446289	105.033714
-7399.140479	4179.404667	327.155273	276.146515
-7399.140479	4179.404667	325.864258	37.510704
-7399.140479	4179.404667	324.573242	55.158401
-7399.140479	4179.404667	323.281250	225.926208
-7399.140479	4179.404667	321.989258	-254.623383
-7399.140479	4179.404667	320.697266	191.323334
-7399.140479	4179.404667	319.405273	-39.761673
-7399.140479	4179.404667	318.112305	-529.043213
-7399.140479	4179.404667	316.819336	-246.783600
-7399.140479	4179.404667	315.526367	-228.071457
-7399.140479	4179.404667	314.232422	-105.960037
-7399.140479	4179.404667	312.938477	-6.242057
-7399.140479	4179.404667	311.644531	-165.016220
-7399.140479	4179.404667	310.349609	297.343048
-7399.140479	4179.404667	309.054688	249.649841
-7399.140479	4179.404667	307.759766	125.361412
-7399.140479	4179.404667	306.464844	224.286377
-7399.140479	4179.404667	305.168945	376.895996
-7399.140479	4179.404667	303.873047	634.401917
-7399.140479	4179.404667	302.577148	468.973114
-7399.140479	4179.404667	301.281250	899.946045
-7399.140479	4179.404667	299.984375	1127.862061
