#X		#Y		#Wave		#Intensity
-7408.298883	4188.708333	1999.946289	-12.890940
-7408.298883	4188.708333	1998.981445	49.002853
-7408.298883	4188.708333	1998.017578	281.687195
-7408.298883	4188.708333	1997.052734	-112.614616
-7408.298883	4188.708333	1996.088867	149.867538
-7408.298883	4188.708333	1995.124023	67.980339
-7408.298883	4188.708333	1994.159180	-55.924927
-7408.298883	4188.708333	1993.193359	48.086472
-7408.298883	4188.708333	1992.228516	-70.713661
-7408.298883	4188.708333	1991.262695	-28.521034
-7408.298883	4188.708333	1990.296875	23.602509
-7408.298883	4188.708333	1989.331055	182.154037
-7408.298883	4188.708333	1988.365234	122.979324
-7408.298883	4188.708333	1987.398438	157.863205
-7408.298883	4188.708333	1986.432617	54.283192
-7408.298883	4188.708333	1985.465820	-17.076717
-7408.298883	4188.708333	1984.499023	-142.760864
-7408.298883	4188.708333	1983.532227	-129.947723
-7408.298883	4188.708333	1982.565430	-23.200500
-7408.298883	4188.708333	1981.597656	88.480919
-7408.298883	4188.708333	1980.629883	39.581493
-7408.298883	4188.708333	1979.662109	287.110382
-7408.298883	4188.708333	1978.694336	-43.263100
-7408.298883	4188.708333	1977.726563	-178.442780
-7408.298883	4188.708333	1976.758789	-44.484863
-7408.298883	4188.708333	1975.790039	161.019348
-7408.298883	4188.708333	1974.821289	213.479614
-7408.298883	4188.708333	1973.852539	127.783195
-7408.298883	4188.708333	1972.883789	103.802773
-7408.298883	4188.708333	1971.915039	245.081909
-7408.298883	4188.708333	1970.945313	327.148651
-7408.298883	4188.708333	1969.975586	214.443100
-7408.298883	4188.708333	1969.005859	-102.786018
-7408.298883	4188.708333	1968.036133	-94.591690
-7408.298883	4188.708333	1967.066406	14.630354
-7408.298883	4188.708333	1966.096680	-100.351540
-7408.298883	4188.708333	1965.125977	28.554396
-7408.298883	4188.708333	1964.155273	228.832260
-7408.298883	4188.708333	1963.184570	414.269989
-7408.298883	4188.708333	1962.213867	163.938812
-7408.298883	4188.708333	1961.242188	209.044815
-7408.298883	4188.708333	1960.271484	118.797623
-7408.298883	4188.708333	1959.299805	60.570553
-7408.298883	4188.708333	1958.328125	108.135895
-7408.298883	4188.708333	1957.356445	128.632339
-7408.298883	4188.708333	1956.384766	28.635101
-7408.298883	4188.708333	1955.412109	83.554565
-7408.298883	4188.708333	1954.439453	-48.353516
-7408.298883	4188.708333	1953.467773	21.296549
-7408.298883	4188.708333	1952.495117	63.890926
-7408.298883	4188.708333	1951.521484	42.593800
-7408.298883	4188.708333	1950.548828	87.613029
-7408.298883	4188.708333	1949.575195	105.597511
-7408.298883	4188.708333	1948.601563	315.073669
-7408.298883	4188.708333	1947.627930	180.798508
-7408.298883	4188.708333	1946.654297	284.629730
-7408.298883	4188.708333	1945.680664	-75.361183
-7408.298883	4188.708333	1944.706055	116.781219
-7408.298883	4188.708333	1943.732422	-174.385345
-7408.298883	4188.708333	1942.757813	74.087799
-7408.298883	4188.708333	1941.783203	190.046600
-7408.298883	4188.708333	1940.807617	-12.750776
-7408.298883	4188.708333	1939.833008	110.507446
-7408.298883	4188.708333	1938.857422	143.031647
-7408.298883	4188.708333	1937.881836	82.422737
-7408.298883	4188.708333	1936.906250	-108.016151
-7408.298883	4188.708333	1935.930664	-178.385208
-7408.298883	4188.708333	1934.955078	94.087448
-7408.298883	4188.708333	1933.978516	192.609238
-7408.298883	4188.708333	1933.001953	41.390568
-7408.298883	4188.708333	1932.025391	105.584251
-7408.298883	4188.708333	1931.048828	-82.305336
-7408.298883	4188.708333	1930.072266	-208.980850
-7408.298883	4188.708333	1929.094727	55.743595
-7408.298883	4188.708333	1928.118164	220.076813
-7408.298883	4188.708333	1927.140625	19.999439
-7408.298883	4188.708333	1926.163086	-155.577682
-7408.298883	4188.708333	1925.184570	-47.578079
-7408.298883	4188.708333	1924.207031	270.524658
-7408.298883	4188.708333	1923.228516	72.941505
-7408.298883	4188.708333	1922.250000	83.053169
-7408.298883	4188.708333	1921.271484	95.580933
-7408.298883	4188.708333	1920.292969	142.266602
-7408.298883	4188.708333	1919.314453	39.976978
-7408.298883	4188.708333	1918.334961	184.249374
-7408.298883	4188.708333	1917.355469	42.891422
-7408.298883	4188.708333	1916.375977	45.528744
-7408.298883	4188.708333	1915.396484	-115.320442
-7408.298883	4188.708333	1914.416992	-200.519730
-7408.298883	4188.708333	1913.436523	287.401672
-7408.298883	4188.708333	1912.457031	-51.481266
-7408.298883	4188.708333	1911.476563	53.428688
-7408.298883	4188.708333	1910.496094	-29.410219
-7408.298883	4188.708333	1909.515625	197.248795
-7408.298883	4188.708333	1908.534180	-148.784683
-7408.298883	4188.708333	1907.552734	111.859825
-7408.298883	4188.708333	1906.572266	143.430832
-7408.298883	4188.708333	1905.590820	67.815308
-7408.298883	4188.708333	1904.608398	21.414272
-7408.298883	4188.708333	1903.626953	-39.603951
-7408.298883	4188.708333	1902.644531	188.990219
-7408.298883	4188.708333	1901.663086	42.736320
-7408.298883	4188.708333	1900.680664	103.300362
-7408.298883	4188.708333	1899.698242	47.055038
-7408.298883	4188.708333	1898.714844	-82.159027
-7408.298883	4188.708333	1897.732422	-153.000290
-7408.298883	4188.708333	1896.749023	16.827919
-7408.298883	4188.708333	1895.765625	-126.986137
-7408.298883	4188.708333	1894.782227	186.088608
-7408.298883	4188.708333	1893.798828	-57.384563
-7408.298883	4188.708333	1892.814453	-101.602287
-7408.298883	4188.708333	1891.831055	271.915070
-7408.298883	4188.708333	1890.846680	203.303696
-7408.298883	4188.708333	1889.862305	83.699333
-7408.298883	4188.708333	1888.877930	126.744392
-7408.298883	4188.708333	1887.892578	130.908112
-7408.298883	4188.708333	1886.908203	-127.025803
-7408.298883	4188.708333	1885.922852	-59.806263
-7408.298883	4188.708333	1884.937500	48.590378
-7408.298883	4188.708333	1883.952148	28.378820
-7408.298883	4188.708333	1882.965820	0.866046
-7408.298883	4188.708333	1881.980469	65.451340
-7408.298883	4188.708333	1880.994141	110.587639
-7408.298883	4188.708333	1880.007813	63.584896
-7408.298883	4188.708333	1879.021484	23.834595
-7408.298883	4188.708333	1878.035156	-185.506149
-7408.298883	4188.708333	1877.047852	16.930984
-7408.298883	4188.708333	1876.061523	272.531067
-7408.298883	4188.708333	1875.074219	-162.003372
-7408.298883	4188.708333	1874.086914	151.557785
-7408.298883	4188.708333	1873.098633	181.807358
-7408.298883	4188.708333	1872.111328	49.890442
-7408.298883	4188.708333	1871.123047	-103.787544
-7408.298883	4188.708333	1870.135742	122.308304
-7408.298883	4188.708333	1869.147461	0.042259
-7408.298883	4188.708333	1868.158203	327.510803
-7408.298883	4188.708333	1867.169922	91.559639
-7408.298883	4188.708333	1866.180664	82.855530
-7408.298883	4188.708333	1865.192383	-49.122883
-7408.298883	4188.708333	1864.203125	-137.600525
-7408.298883	4188.708333	1863.213867	-69.065659
-7408.298883	4188.708333	1862.223633	161.220673
-7408.298883	4188.708333	1861.234375	-161.582916
-7408.298883	4188.708333	1860.244141	-192.179199
-7408.298883	4188.708333	1859.253906	45.132244
-7408.298883	4188.708333	1858.263672	-79.685776
-7408.298883	4188.708333	1857.273438	181.569809
-7408.298883	4188.708333	1856.282227	-10.851491
-7408.298883	4188.708333	1855.291992	-7.864879
-7408.298883	4188.708333	1854.300781	236.236664
-7408.298883	4188.708333	1853.309570	-40.586502
-7408.298883	4188.708333	1852.317383	-3.961961
-7408.298883	4188.708333	1851.326172	59.124100
-7408.298883	4188.708333	1850.333984	52.266106
-7408.298883	4188.708333	1849.342773	79.103996
-7408.298883	4188.708333	1848.350586	284.145142
-7408.298883	4188.708333	1847.357422	163.939240
-7408.298883	4188.708333	1846.365234	58.190853
-7408.298883	4188.708333	1845.372070	116.149361
-7408.298883	4188.708333	1844.379883	320.876953
-7408.298883	4188.708333	1843.386719	56.209721
-7408.298883	4188.708333	1842.393555	207.860443
-7408.298883	4188.708333	1841.399414	-13.462934
-7408.298883	4188.708333	1840.406250	-20.676445
-7408.298883	4188.708333	1839.412109	159.642670
-7408.298883	4188.708333	1838.417969	92.213158
-7408.298883	4188.708333	1837.423828	-68.978676
-7408.298883	4188.708333	1836.429688	-105.172096
-7408.298883	4188.708333	1835.434570	283.926605
-7408.298883	4188.708333	1834.440430	-144.001541
-7408.298883	4188.708333	1833.445313	-67.382767
-7408.298883	4188.708333	1832.450195	-72.485435
-7408.298883	4188.708333	1831.454102	56.836555
-7408.298883	4188.708333	1830.458984	82.843681
-7408.298883	4188.708333	1829.462891	-174.425781
-7408.298883	4188.708333	1828.466797	62.716026
-7408.298883	4188.708333	1827.470703	98.186104
-7408.298883	4188.708333	1826.474609	44.846748
-7408.298883	4188.708333	1825.478516	111.408905
-7408.298883	4188.708333	1824.481445	285.812378
-7408.298883	4188.708333	1823.484375	26.163179
-7408.298883	4188.708333	1822.487305	6.277738
-7408.298883	4188.708333	1821.490234	34.292774
-7408.298883	4188.708333	1820.493164	14.336225
-7408.298883	4188.708333	1819.495117	346.512756
-7408.298883	4188.708333	1818.498047	79.715569
-7408.298883	4188.708333	1817.500000	138.669571
-7408.298883	4188.708333	1816.500977	326.854187
-7408.298883	4188.708333	1815.502930	218.088577
-7408.298883	4188.708333	1814.504883	157.194168
-7408.298883	4188.708333	1813.505859	19.706068
-7408.298883	4188.708333	1812.506836	4.248313
-7408.298883	4188.708333	1811.507813	55.736935
-7408.298883	4188.708333	1810.508789	186.090897
-7408.298883	4188.708333	1809.508789	55.714336
-7408.298883	4188.708333	1808.508789	166.811493
-7408.298883	4188.708333	1807.508789	105.727127
-7408.298883	4188.708333	1806.508789	226.254227
-7408.298883	4188.708333	1805.508789	28.909439
-7408.298883	4188.708333	1804.508789	-285.456635
-7408.298883	4188.708333	1803.507813	324.591187
-7408.298883	4188.708333	1802.506836	65.131409
-7408.298883	4188.708333	1801.505859	-93.992203
-7408.298883	4188.708333	1800.504883	19.036816
-7408.298883	4188.708333	1799.502930	-11.219561
-7408.298883	4188.708333	1798.501953	151.782761
-7408.298883	4188.708333	1797.500000	176.307312
-7408.298883	4188.708333	1796.498047	64.821510
-7408.298883	4188.708333	1795.496094	-113.438286
-7408.298883	4188.708333	1794.493164	173.286026
-7408.298883	4188.708333	1793.491211	149.952988
-7408.298883	4188.708333	1792.488281	114.668533
-7408.298883	4188.708333	1791.485352	-73.156372
-7408.298883	4188.708333	1790.482422	55.936329
-7408.298883	4188.708333	1789.478516	130.147934
-7408.298883	4188.708333	1788.475586	-117.232605
-7408.298883	4188.708333	1787.471680	-74.050835
-7408.298883	4188.708333	1786.467773	-135.677841
-7408.298883	4188.708333	1785.463867	26.431345
-7408.298883	4188.708333	1784.459961	140.842239
-7408.298883	4188.708333	1783.455078	-6.570258
-7408.298883	4188.708333	1782.450195	328.968445
-7408.298883	4188.708333	1781.445313	36.407597
-7408.298883	4188.708333	1780.440430	34.045162
-7408.298883	4188.708333	1779.435547	19.757183
-7408.298883	4188.708333	1778.429688	0.678175
-7408.298883	4188.708333	1777.424805	-44.572021
-7408.298883	4188.708333	1776.418945	14.709111
-7408.298883	4188.708333	1775.413086	2.653824
-7408.298883	4188.708333	1774.406250	-30.817364
-7408.298883	4188.708333	1773.400391	137.559219
-7408.298883	4188.708333	1772.393555	49.385262
-7408.298883	4188.708333	1771.386719	181.992355
-7408.298883	4188.708333	1770.379883	58.163807
-7408.298883	4188.708333	1769.373047	83.851860
-7408.298883	4188.708333	1768.365234	273.202423
-7408.298883	4188.708333	1767.358398	59.169079
-7408.298883	4188.708333	1766.350586	210.429245
-7408.298883	4188.708333	1765.342773	-65.244820
-7408.298883	4188.708333	1764.334961	33.746609
-7408.298883	4188.708333	1763.326172	66.286606
-7408.298883	4188.708333	1762.318359	-12.607469
-7408.298883	4188.708333	1761.309570	266.284485
-7408.298883	4188.708333	1760.300781	-151.474075
-7408.298883	4188.708333	1759.291016	-88.285370
-7408.298883	4188.708333	1758.282227	-200.397369
-7408.298883	4188.708333	1757.272461	-4.705469
-7408.298883	4188.708333	1756.262695	34.636150
-7408.298883	4188.708333	1755.252930	230.136398
-7408.298883	4188.708333	1754.243164	101.332542
-7408.298883	4188.708333	1753.233398	220.962982
-7408.298883	4188.708333	1752.222656	-163.338562
-7408.298883	4188.708333	1751.211914	-157.301315
-7408.298883	4188.708333	1750.201172	300.328827
-7408.298883	4188.708333	1749.190430	105.253113
-7408.298883	4188.708333	1748.179688	-30.692318
-7408.298883	4188.708333	1747.167969	88.599709
-7408.298883	4188.708333	1746.156250	-28.465055
-7408.298883	4188.708333	1745.144531	154.492447
-7408.298883	4188.708333	1744.132813	63.368858
-7408.298883	4188.708333	1743.121094	59.617474
-7408.298883	4188.708333	1742.108398	232.898071
-7408.298883	4188.708333	1741.095703	59.083370
-7408.298883	4188.708333	1740.083008	-32.096973
-7408.298883	4188.708333	1739.070313	98.525192
-7408.298883	4188.708333	1738.057617	132.337723
-7408.298883	4188.708333	1737.043945	225.064743
-7408.298883	4188.708333	1736.030273	15.865239
-7408.298883	4188.708333	1735.016602	311.283356
-7408.298883	4188.708333	1734.002930	236.448196
-7408.298883	4188.708333	1732.989258	241.743713
-7408.298883	4188.708333	1731.974609	-56.985001
-7408.298883	4188.708333	1730.959961	261.640930
-7408.298883	4188.708333	1729.945313	177.311188
-7408.298883	4188.708333	1728.930664	149.503494
-7408.298883	4188.708333	1727.916016	67.516876
-7408.298883	4188.708333	1726.900391	37.315422
-7408.298883	4188.708333	1725.885742	178.922745
-7408.298883	4188.708333	1724.870117	19.215023
-7408.298883	4188.708333	1723.853516	-220.466812
-7408.298883	4188.708333	1722.837891	-83.697571
-7408.298883	4188.708333	1721.822266	38.875435
-7408.298883	4188.708333	1720.805664	168.418289
-7408.298883	4188.708333	1719.789063	-40.671211
-7408.298883	4188.708333	1718.772461	112.280998
-7408.298883	4188.708333	1717.754883	239.286636
-7408.298883	4188.708333	1716.738281	65.456734
-7408.298883	4188.708333	1715.720703	-4.976541
-7408.298883	4188.708333	1714.703125	51.423820
-7408.298883	4188.708333	1713.685547	208.750839
-7408.298883	4188.708333	1712.667969	140.588745
-7408.298883	4188.708333	1711.649414	243.782135
-7408.298883	4188.708333	1710.630859	-19.226988
-7408.298883	4188.708333	1709.612305	208.266708
-7408.298883	4188.708333	1708.593750	205.725418
-7408.298883	4188.708333	1707.575195	212.539047
-7408.298883	4188.708333	1706.555664	-148.882492
-7408.298883	4188.708333	1705.536133	54.894161
-7408.298883	4188.708333	1704.516602	324.205231
-7408.298883	4188.708333	1703.497070	84.767754
-7408.298883	4188.708333	1702.477539	262.521515
-7408.298883	4188.708333	1701.457031	151.990555
-7408.298883	4188.708333	1700.437500	205.456696
-7408.298883	4188.708333	1699.416992	406.418915
-7408.298883	4188.708333	1698.395508	452.725159
-7408.298883	4188.708333	1697.375000	77.586006
-7408.298883	4188.708333	1696.354492	264.335114
-7408.298883	4188.708333	1695.333008	287.162445
-7408.298883	4188.708333	1694.311523	394.189178
-7408.298883	4188.708333	1693.290039	161.942902
-7408.298883	4188.708333	1692.267578	343.742493
-7408.298883	4188.708333	1691.246094	125.577209
-7408.298883	4188.708333	1690.223633	188.026733
-7408.298883	4188.708333	1689.201172	308.867615
-7408.298883	4188.708333	1688.178711	408.605042
-7408.298883	4188.708333	1687.155273	555.007019
-7408.298883	4188.708333	1686.132813	458.371582
-7408.298883	4188.708333	1685.109375	30.065369
-7408.298883	4188.708333	1684.085938	416.926575
-7408.298883	4188.708333	1683.062500	355.323669
-7408.298883	4188.708333	1682.039063	230.693573
-7408.298883	4188.708333	1681.014648	381.491638
-7408.298883	4188.708333	1679.990234	487.873505
-7408.298883	4188.708333	1678.965820	393.551453
-7408.298883	4188.708333	1677.941406	523.176208
-7408.298883	4188.708333	1676.916992	235.274551
-7408.298883	4188.708333	1675.891602	453.439453
-7408.298883	4188.708333	1674.866211	589.907715
-7408.298883	4188.708333	1673.840820	777.582092
-7408.298883	4188.708333	1672.815430	692.512695
-7408.298883	4188.708333	1671.790039	423.395264
-7408.298883	4188.708333	1670.763672	557.354980
-7408.298883	4188.708333	1669.737305	500.266388
-7408.298883	4188.708333	1668.710938	717.954102
-7408.298883	4188.708333	1667.684570	493.198853
-7408.298883	4188.708333	1666.658203	554.818359
-7408.298883	4188.708333	1665.630859	513.993408
-7408.298883	4188.708333	1664.603516	710.499084
-7408.298883	4188.708333	1663.576172	976.704895
-7408.298883	4188.708333	1662.548828	621.785156
-7408.298883	4188.708333	1661.520508	578.587524
-7408.298883	4188.708333	1660.493164	684.197998
-7408.298883	4188.708333	1659.464844	936.195557
-7408.298883	4188.708333	1658.436523	1020.746826
-7408.298883	4188.708333	1657.408203	800.858154
-7408.298883	4188.708333	1656.378906	843.554016
-7408.298883	4188.708333	1655.350586	872.292542
-7408.298883	4188.708333	1654.321289	905.647705
-7408.298883	4188.708333	1653.291992	1029.529419
-7408.298883	4188.708333	1652.261719	1241.559937
-7408.298883	4188.708333	1651.232422	1219.089844
-7408.298883	4188.708333	1650.202148	1008.652100
-7408.298883	4188.708333	1649.171875	1157.893188
-7408.298883	4188.708333	1648.141602	1140.057495
-7408.298883	4188.708333	1647.111328	1238.178711
-7408.298883	4188.708333	1646.080078	1146.113525
-7408.298883	4188.708333	1645.049805	1457.456665
-7408.298883	4188.708333	1644.018555	1592.514526
-7408.298883	4188.708333	1642.987305	1442.480347
-7408.298883	4188.708333	1641.955078	1456.989990
-7408.298883	4188.708333	1640.923828	1703.140381
-7408.298883	4188.708333	1639.891602	1488.300415
-7408.298883	4188.708333	1638.859375	1766.750977
-7408.298883	4188.708333	1637.827148	1667.729126
-7408.298883	4188.708333	1636.794922	2066.389404
-7408.298883	4188.708333	1635.761719	2018.246826
-7408.298883	4188.708333	1634.729492	1798.907837
-7408.298883	4188.708333	1633.696289	1963.653687
-7408.298883	4188.708333	1632.662109	1947.923950
-7408.298883	4188.708333	1631.628906	1802.710449
-7408.298883	4188.708333	1630.594727	1932.668945
-7408.298883	4188.708333	1629.561523	1824.500000
-7408.298883	4188.708333	1628.527344	1928.982666
-7408.298883	4188.708333	1627.493164	1779.257446
-7408.298883	4188.708333	1626.458008	1721.991333
-7408.298883	4188.708333	1625.423828	1995.045166
-7408.298883	4188.708333	1624.388672	1727.621582
-7408.298883	4188.708333	1623.353516	2106.771484
-7408.298883	4188.708333	1622.318359	2026.413330
-7408.298883	4188.708333	1621.282227	1994.548096
-7408.298883	4188.708333	1620.247070	2034.239502
-7408.298883	4188.708333	1619.210938	2055.456299
-7408.298883	4188.708333	1618.174805	2173.545898
-7408.298883	4188.708333	1617.137695	2266.222412
-7408.298883	4188.708333	1616.101563	2172.115967
-7408.298883	4188.708333	1615.064453	2324.704834
-7408.298883	4188.708333	1614.027344	2232.934082
-7408.298883	4188.708333	1612.990234	2403.902344
-7408.298883	4188.708333	1611.953125	2471.136963
-7408.298883	4188.708333	1610.916016	2291.886719
-7408.298883	4188.708333	1609.877930	2338.403076
-7408.298883	4188.708333	1608.839844	2532.271484
-7408.298883	4188.708333	1607.801758	2675.427979
-7408.298883	4188.708333	1606.763672	2685.047119
-7408.298883	4188.708333	1605.724609	2713.075684
-7408.298883	4188.708333	1604.685547	2688.188965
-7408.298883	4188.708333	1603.646484	2746.135498
-7408.298883	4188.708333	1602.607422	2739.675781
-7408.298883	4188.708333	1601.568359	2972.370850
-7408.298883	4188.708333	1600.528320	2788.872559
-7408.298883	4188.708333	1599.489258	2918.062256
-7408.298883	4188.708333	1598.449219	2693.311523
-7408.298883	4188.708333	1597.408203	2964.939453
-7408.298883	4188.708333	1596.368164	2868.940674
-7408.298883	4188.708333	1595.327148	2690.308105
-7408.298883	4188.708333	1594.287109	2803.393311
-7408.298883	4188.708333	1593.246094	2714.416260
-7408.298883	4188.708333	1592.204102	2572.691895
-7408.298883	4188.708333	1591.163086	2694.964355
-7408.298883	4188.708333	1590.121094	2413.377197
-7408.298883	4188.708333	1589.079102	2567.781494
-7408.298883	4188.708333	1588.037109	2430.865479
-7408.298883	4188.708333	1586.995117	2750.352051
-7408.298883	4188.708333	1585.953125	2707.497803
-7408.298883	4188.708333	1584.910156	2318.550293
-7408.298883	4188.708333	1583.867188	2427.091309
-7408.298883	4188.708333	1582.824219	2553.943604
-7408.298883	4188.708333	1581.781250	2616.629150
-7408.298883	4188.708333	1580.737305	2173.122314
-7408.298883	4188.708333	1579.693359	2226.740967
-7408.298883	4188.708333	1578.649414	2561.975830
-7408.298883	4188.708333	1577.605469	2588.081299
-7408.298883	4188.708333	1576.561523	2170.210205
-7408.298883	4188.708333	1575.516602	2253.634521
-7408.298883	4188.708333	1574.472656	2389.679443
-7408.298883	4188.708333	1573.427734	2271.805908
-7408.298883	4188.708333	1572.381836	1854.426392
-7408.298883	4188.708333	1571.336914	1910.526978
-7408.298883	4188.708333	1570.291016	2046.640381
-7408.298883	4188.708333	1569.246094	2013.611694
-7408.298883	4188.708333	1568.200195	2012.610840
-7408.298883	4188.708333	1567.153320	2075.607178
-7408.298883	4188.708333	1566.107422	1814.267578
-7408.298883	4188.708333	1565.060547	2256.438232
-7408.298883	4188.708333	1564.013672	1915.314819
-7408.298883	4188.708333	1562.966797	1823.185303
-7408.298883	4188.708333	1561.919922	1820.140015
-7408.298883	4188.708333	1560.872070	2006.523193
-7408.298883	4188.708333	1559.825195	1898.567871
-7408.298883	4188.708333	1558.777344	1861.397705
-7408.298883	4188.708333	1557.729492	1885.854980
-7408.298883	4188.708333	1556.680664	2047.141724
-7408.298883	4188.708333	1555.632813	1761.595825
-7408.298883	4188.708333	1554.583984	1845.429321
-7408.298883	4188.708333	1553.535156	1806.216797
-7408.298883	4188.708333	1552.486328	1603.019287
-7408.298883	4188.708333	1551.436523	2083.300537
-7408.298883	4188.708333	1550.387695	1716.238403
-7408.298883	4188.708333	1549.337891	1900.386597
-7408.298883	4188.708333	1548.288086	2064.014893
-7408.298883	4188.708333	1547.238281	2009.118286
-7408.298883	4188.708333	1546.187500	2081.718994
-7408.298883	4188.708333	1545.136719	1744.801514
-7408.298883	4188.708333	1544.086914	1867.565063
-7408.298883	4188.708333	1543.035156	1869.777710
-7408.298883	4188.708333	1541.984375	1860.670410
-7408.298883	4188.708333	1540.933594	1953.918213
-7408.298883	4188.708333	1539.881836	1667.590820
-7408.298883	4188.708333	1538.830078	1795.016113
-7408.298883	4188.708333	1537.778320	1520.288452
-7408.298883	4188.708333	1536.725586	1650.057739
-7408.298883	4188.708333	1535.673828	1402.820557
-7408.298883	4188.708333	1534.621094	1287.427124
-7408.298883	4188.708333	1533.568359	1378.722778
-7408.298883	4188.708333	1532.515625	1252.131714
-7408.298883	4188.708333	1531.461914	1350.304321
-7408.298883	4188.708333	1530.409180	1251.101685
-7408.298883	4188.708333	1529.355469	1106.616943
-7408.298883	4188.708333	1528.301758	1302.442871
-7408.298883	4188.708333	1527.247070	1246.542725
-7408.298883	4188.708333	1526.193359	1245.136353
-7408.298883	4188.708333	1525.138672	928.713867
-7408.298883	4188.708333	1524.083984	900.280090
-7408.298883	4188.708333	1523.029297	933.091309
-7408.298883	4188.708333	1521.974609	786.985962
-7408.298883	4188.708333	1520.918945	1066.788574
-7408.298883	4188.708333	1519.863281	825.720703
-7408.298883	4188.708333	1518.807617	933.458435
-7408.298883	4188.708333	1517.751953	821.650818
-7408.298883	4188.708333	1516.696289	476.849091
-7408.298883	4188.708333	1515.639648	675.272583
-7408.298883	4188.708333	1514.583008	568.283142
-7408.298883	4188.708333	1513.526367	741.851868
-7408.298883	4188.708333	1512.469727	621.446045
-7408.298883	4188.708333	1511.412109	738.535278
-7408.298883	4188.708333	1510.355469	568.574341
-7408.298883	4188.708333	1509.297852	536.597839
-7408.298883	4188.708333	1508.240234	389.461273
-7408.298883	4188.708333	1507.181641	486.423492
-7408.298883	4188.708333	1506.124023	411.761108
-7408.298883	4188.708333	1505.065430	249.122406
-7408.298883	4188.708333	1504.006836	434.300110
-7408.298883	4188.708333	1502.948242	271.853302
-7408.298883	4188.708333	1501.888672	414.203278
-7408.298883	4188.708333	1500.830078	267.752899
-7408.298883	4188.708333	1499.770508	378.600311
-7408.298883	4188.708333	1498.710938	67.698090
-7408.298883	4188.708333	1497.650391	29.844740
-7408.298883	4188.708333	1496.590820	93.532455
-7408.298883	4188.708333	1495.530273	-162.823730
-7408.298883	4188.708333	1494.469727	97.083954
-7408.298883	4188.708333	1493.409180	-68.900314
-7408.298883	4188.708333	1492.348633	-124.362091
-7408.298883	4188.708333	1491.287109	99.556129
-7408.298883	4188.708333	1490.225586	-219.246368
-7408.298883	4188.708333	1489.164063	-193.380508
-7408.298883	4188.708333	1488.102539	-252.988480
-7408.298883	4188.708333	1487.041016	-8.677332
-7408.298883	4188.708333	1485.978516	-115.407608
-7408.298883	4188.708333	1484.916016	7.485264
-7408.298883	4188.708333	1483.853516	161.812195
-7408.298883	4188.708333	1482.791016	-120.055367
-7408.298883	4188.708333	1481.727539	27.687948
-7408.298883	4188.708333	1480.664063	-190.936188
-7408.298883	4188.708333	1479.600586	71.517899
-7408.298883	4188.708333	1478.537109	241.814224
-7408.298883	4188.708333	1477.473633	93.154305
-7408.298883	4188.708333	1476.409180	202.890701
-7408.298883	4188.708333	1475.344727	285.740051
-7408.298883	4188.708333	1474.280273	90.310074
-7408.298883	4188.708333	1473.215820	191.198776
-7408.298883	4188.708333	1472.151367	435.849823
-7408.298883	4188.708333	1471.085938	231.823196
-7408.298883	4188.708333	1470.020508	162.684677
-7408.298883	4188.708333	1468.955078	310.833038
-7408.298883	4188.708333	1467.888672	385.172180
-7408.298883	4188.708333	1466.823242	340.541779
-7408.298883	4188.708333	1465.756836	388.569672
-7408.298883	4188.708333	1464.690430	483.377991
-7408.298883	4188.708333	1463.624023	454.621277
-7408.298883	4188.708333	1462.556641	401.899109
-7408.298883	4188.708333	1461.490234	478.884338
-7408.298883	4188.708333	1460.422852	405.690002
-7408.298883	4188.708333	1459.355469	603.361572
-7408.298883	4188.708333	1458.287109	740.842651
-7408.298883	4188.708333	1457.219727	688.088623
-7408.298883	4188.708333	1456.151367	508.049103
-7408.298883	4188.708333	1455.083008	815.874695
-7408.298883	4188.708333	1454.014648	753.544189
-7408.298883	4188.708333	1452.945313	965.460449
-7408.298883	4188.708333	1451.876953	750.918030
-7408.298883	4188.708333	1450.807617	724.136658
-7408.298883	4188.708333	1449.738281	636.219788
-7408.298883	4188.708333	1448.668945	791.720276
-7408.298883	4188.708333	1447.598633	814.969238
-7408.298883	4188.708333	1446.528320	978.368591
-7408.298883	4188.708333	1445.458008	792.965393
-7408.298883	4188.708333	1444.387695	781.595764
-7408.298883	4188.708333	1443.317383	724.261902
-7408.298883	4188.708333	1442.246094	770.090027
-7408.298883	4188.708333	1441.174805	809.444641
-7408.298883	4188.708333	1440.103516	854.460693
-7408.298883	4188.708333	1439.032227	847.485901
-7408.298883	4188.708333	1437.960938	973.731445
-7408.298883	4188.708333	1436.888672	985.236145
-7408.298883	4188.708333	1435.816406	737.297485
-7408.298883	4188.708333	1434.744141	977.204773
-7408.298883	4188.708333	1433.670898	882.789978
-7408.298883	4188.708333	1432.598633	728.139465
-7408.298883	4188.708333	1431.525391	609.927124
-7408.298883	4188.708333	1430.452148	574.600403
-7408.298883	4188.708333	1429.378906	630.946472
-7408.298883	4188.708333	1428.304688	385.165039
-7408.298883	4188.708333	1427.231445	523.890381
-7408.298883	4188.708333	1426.157227	470.418213
-7408.298883	4188.708333	1425.083008	571.346008
-7408.298883	4188.708333	1424.007813	421.543549
-7408.298883	4188.708333	1422.933594	467.939453
-7408.298883	4188.708333	1421.858398	210.617188
-7408.298883	4188.708333	1420.783203	394.076172
-7408.298883	4188.708333	1419.708008	407.609406
-7408.298883	4188.708333	1418.631836	242.440643
-7408.298883	4188.708333	1417.555664	370.049530
-7408.298883	4188.708333	1416.479492	537.619690
-7408.298883	4188.708333	1415.403320	39.530071
-7408.298883	4188.708333	1414.327148	370.950592
-7408.298883	4188.708333	1413.250000	275.898407
-7408.298883	4188.708333	1412.173828	185.632355
-7408.298883	4188.708333	1411.096680	431.899597
-7408.298883	4188.708333	1410.018555	107.063705
-7408.298883	4188.708333	1408.941406	173.379105
-7408.298883	4188.708333	1407.863281	38.058285
-7408.298883	4188.708333	1406.785156	464.121002
-7408.298883	4188.708333	1405.707031	414.075043
-7408.298883	4188.708333	1404.628906	346.555115
-7408.298883	4188.708333	1403.549805	452.081024
-7408.298883	4188.708333	1402.470703	404.244385
-7408.298883	4188.708333	1401.391602	229.324478
-7408.298883	4188.708333	1400.312500	332.106384
-7408.298883	4188.708333	1399.233398	400.935730
-7408.298883	4188.708333	1398.153320	538.027954
-7408.298883	4188.708333	1397.073242	430.659912
-7408.298883	4188.708333	1395.993164	412.186859
-7408.298883	4188.708333	1394.913086	272.265045
-7408.298883	4188.708333	1393.832031	456.463715
-7408.298883	4188.708333	1392.750977	148.653015
-7408.298883	4188.708333	1391.669922	272.596527
-7408.298883	4188.708333	1390.588867	45.212070
-7408.298883	4188.708333	1389.506836	421.735291
-7408.298883	4188.708333	1388.425781	177.421219
-7408.298883	4188.708333	1387.343750	350.743225
-7408.298883	4188.708333	1386.261719	409.568970
-7408.298883	4188.708333	1385.178711	244.532806
-7408.298883	4188.708333	1384.096680	267.351990
-7408.298883	4188.708333	1383.013672	96.855965
-7408.298883	4188.708333	1381.930664	246.206970
-7408.298883	4188.708333	1380.846680	501.113892
-7408.298883	4188.708333	1379.763672	341.918274
-7408.298883	4188.708333	1378.679688	305.997101
-7408.298883	4188.708333	1377.595703	132.461487
-7408.298883	4188.708333	1376.511719	320.672516
-7408.298883	4188.708333	1375.427734	371.842896
-7408.298883	4188.708333	1374.342773	358.699554
-7408.298883	4188.708333	1373.257813	113.034813
-7408.298883	4188.708333	1372.172852	293.873871
-7408.298883	4188.708333	1371.087891	387.683258
-7408.298883	4188.708333	1370.001953	431.518372
-7408.298883	4188.708333	1368.916992	190.679993
-7408.298883	4188.708333	1367.831055	497.417755
-7408.298883	4188.708333	1366.744141	603.274597
-7408.298883	4188.708333	1365.658203	706.550903
-7408.298883	4188.708333	1364.571289	843.723267
-7408.298883	4188.708333	1363.484375	543.716064
-7408.298883	4188.708333	1362.397461	466.695129
-7408.298883	4188.708333	1361.310547	770.523438
-7408.298883	4188.708333	1360.222656	601.995178
-7408.298883	4188.708333	1359.135742	643.122620
-7408.298883	4188.708333	1358.047852	520.279846
-7408.298883	4188.708333	1356.958984	333.956970
-7408.298883	4188.708333	1355.871094	356.019287
-7408.298883	4188.708333	1354.782227	410.257294
-7408.298883	4188.708333	1353.693359	421.022339
-7408.298883	4188.708333	1352.604492	462.636414
-7408.298883	4188.708333	1351.515625	366.716309
-7408.298883	4188.708333	1350.425781	399.945618
-7408.298883	4188.708333	1349.335938	364.032806
-7408.298883	4188.708333	1348.246094	259.040039
-7408.298883	4188.708333	1347.156250	390.429810
-7408.298883	4188.708333	1346.066406	427.412689
-7408.298883	4188.708333	1344.975586	557.242981
-7408.298883	4188.708333	1343.884766	430.103241
-7408.298883	4188.708333	1342.793945	480.864227
-7408.298883	4188.708333	1341.702148	529.596802
-7408.298883	4188.708333	1340.611328	389.042908
-7408.298883	4188.708333	1339.519531	510.284180
-7408.298883	4188.708333	1338.427734	632.875916
-7408.298883	4188.708333	1337.334961	421.187988
-7408.298883	4188.708333	1336.243164	349.805603
-7408.298883	4188.708333	1335.150391	280.369446
-7408.298883	4188.708333	1334.057617	443.432617
-7408.298883	4188.708333	1332.964844	224.111816
-7408.298883	4188.708333	1331.871094	337.746094
-7408.298883	4188.708333	1330.778320	436.943237
-7408.298883	4188.708333	1329.684570	399.479462
-7408.298883	4188.708333	1328.590820	224.654495
-7408.298883	4188.708333	1327.496094	465.984344
-7408.298883	4188.708333	1326.402344	459.200317
-7408.298883	4188.708333	1325.307617	469.246063
-7408.298883	4188.708333	1324.212891	267.427917
-7408.298883	4188.708333	1323.117188	657.112671
-7408.298883	4188.708333	1322.022461	349.729370
-7408.298883	4188.708333	1320.926758	408.508301
-7408.298883	4188.708333	1319.831055	493.964417
-7408.298883	4188.708333	1318.735352	141.414642
-7408.298883	4188.708333	1317.638672	157.640182
-7408.298883	4188.708333	1316.542969	294.584930
-7408.298883	4188.708333	1315.446289	334.008179
-7408.298883	4188.708333	1314.349609	237.215591
-7408.298883	4188.708333	1313.251953	329.282532
-7408.298883	4188.708333	1312.155273	371.156281
-7408.298883	4188.708333	1311.057617	238.010712
-7408.298883	4188.708333	1309.959961	484.491974
-7408.298883	4188.708333	1308.862305	404.083923
-7408.298883	4188.708333	1307.763672	213.911057
-7408.298883	4188.708333	1306.665039	302.134979
-7408.298883	4188.708333	1305.566406	265.517792
-7408.298883	4188.708333	1304.467773	545.758179
-7408.298883	4188.708333	1303.369141	399.396637
-7408.298883	4188.708333	1302.269531	301.716064
-7408.298883	4188.708333	1301.169922	316.966644
-7408.298883	4188.708333	1300.070313	379.782532
-7408.298883	4188.708333	1298.970703	521.951294
-7408.298883	4188.708333	1297.870117	401.763855
-7408.298883	4188.708333	1296.769531	560.038513
-7408.298883	4188.708333	1295.668945	402.849915
-7408.298883	4188.708333	1294.568359	450.498138
-7408.298883	4188.708333	1293.466797	420.723694
-7408.298883	4188.708333	1292.366211	266.033142
-7408.298883	4188.708333	1291.264648	238.771301
-7408.298883	4188.708333	1290.162109	291.335175
-7408.298883	4188.708333	1289.060547	399.060150
-7408.298883	4188.708333	1287.958008	377.610626
-7408.298883	4188.708333	1286.855469	222.625671
-7408.298883	4188.708333	1285.752930	138.826309
-7408.298883	4188.708333	1284.650391	10.414060
-7408.298883	4188.708333	1283.546875	104.747925
-7408.298883	4188.708333	1282.444336	72.366776
-7408.298883	4188.708333	1281.339844	101.114716
-7408.298883	4188.708333	1280.236328	160.628754
-7408.298883	4188.708333	1279.132813	83.384155
-7408.298883	4188.708333	1278.028320	141.537018
-7408.298883	4188.708333	1276.923828	215.587250
-7408.298883	4188.708333	1275.819336	107.249969
-7408.298883	4188.708333	1274.713867	129.295685
-7408.298883	4188.708333	1273.608398	87.883316
-7408.298883	4188.708333	1272.503906	256.055359
-7408.298883	4188.708333	1271.397461	-25.245192
-7408.298883	4188.708333	1270.291992	113.937698
-7408.298883	4188.708333	1269.185547	-66.138191
-7408.298883	4188.708333	1268.080078	127.283531
-7408.298883	4188.708333	1266.972656	106.127754
-7408.298883	4188.708333	1265.866211	14.718209
-7408.298883	4188.708333	1264.759766	-2.695876
-7408.298883	4188.708333	1263.652344	-83.796745
-7408.298883	4188.708333	1262.544922	24.732254
-7408.298883	4188.708333	1261.436523	110.078094
-7408.298883	4188.708333	1260.329102	-21.032698
-7408.298883	4188.708333	1259.220703	4.276494
-7408.298883	4188.708333	1258.112305	-146.759857
-7408.298883	4188.708333	1257.003906	-105.718651
-7408.298883	4188.708333	1255.895508	-104.741226
-7408.298883	4188.708333	1254.786133	-18.330845
-7408.298883	4188.708333	1253.676758	1.948952
-7408.298883	4188.708333	1252.567383	-153.419159
-7408.298883	4188.708333	1251.458008	14.167610
-7408.298883	4188.708333	1250.347656	-75.829048
-7408.298883	4188.708333	1249.237305	-47.690586
-7408.298883	4188.708333	1248.126953	-58.139404
-7408.298883	4188.708333	1247.016602	-120.905731
-7408.298883	4188.708333	1245.905273	-160.110779
-7408.298883	4188.708333	1244.793945	-5.249009
-7408.298883	4188.708333	1243.682617	-93.629753
-7408.298883	4188.708333	1242.571289	22.744297
-7408.298883	4188.708333	1241.459961	27.809900
-7408.298883	4188.708333	1240.347656	-79.317703
-7408.298883	4188.708333	1239.235352	105.382515
-7408.298883	4188.708333	1238.123047	10.875622
-7408.298883	4188.708333	1237.009766	194.127518
-7408.298883	4188.708333	1235.897461	135.084076
-7408.298883	4188.708333	1234.784180	126.960083
-7408.298883	4188.708333	1233.670898	78.676819
-7408.298883	4188.708333	1232.556641	71.130928
-7408.298883	4188.708333	1231.443359	92.618698
-7408.298883	4188.708333	1230.329102	-23.556057
-7408.298883	4188.708333	1229.214844	62.394070
-7408.298883	4188.708333	1228.099609	42.305241
-7408.298883	4188.708333	1226.985352	-6.304723
-7408.298883	4188.708333	1225.870117	181.255829
-7408.298883	4188.708333	1224.754883	36.547653
-7408.298883	4188.708333	1223.639648	87.182320
-7408.298883	4188.708333	1222.523438	-6.162148
-7408.298883	4188.708333	1221.408203	89.225273
-7408.298883	4188.708333	1220.291992	223.201431
-7408.298883	4188.708333	1219.174805	127.265594
-7408.298883	4188.708333	1218.058594	-21.191605
-7408.298883	4188.708333	1216.941406	82.229721
-7408.298883	4188.708333	1215.824219	8.940812
-7408.298883	4188.708333	1214.707031	-46.085461
-7408.298883	4188.708333	1213.589844	-66.572502
-7408.298883	4188.708333	1212.471680	-188.133179
-7408.298883	4188.708333	1211.353516	50.688606
-7408.298883	4188.708333	1210.235352	-31.294405
-7408.298883	4188.708333	1209.117188	-143.356415
-7408.298883	4188.708333	1207.998047	-15.647356
-7408.298883	4188.708333	1206.878906	-27.635967
-7408.298883	4188.708333	1205.759766	70.380135
-7408.298883	4188.708333	1204.640625	-73.056839
-7408.298883	4188.708333	1203.520508	-73.936646
-7408.298883	4188.708333	1202.401367	63.986572
-7408.298883	4188.708333	1201.281250	96.651993
-7408.298883	4188.708333	1200.160156	131.984650
-7408.298883	4188.708333	1199.040039	-20.625061
-7408.298883	4188.708333	1197.918945	14.847007
-7408.298883	4188.708333	1196.797852	24.052219
-7408.298883	4188.708333	1195.676758	-60.002346
-7408.298883	4188.708333	1194.555664	-16.502975
-7408.298883	4188.708333	1193.433594	115.299828
-7408.298883	4188.708333	1192.311523	170.196106
-7408.298883	4188.708333	1191.189453	3.016194
-7408.298883	4188.708333	1190.066406	187.556442
-7408.298883	4188.708333	1188.944336	99.741478
-7408.298883	4188.708333	1187.821289	-32.846001
-7408.298883	4188.708333	1186.698242	-113.570206
-7408.298883	4188.708333	1185.574219	128.996063
-7408.298883	4188.708333	1184.451172	128.690552
-7408.298883	4188.708333	1183.327148	78.009026
-7408.298883	4188.708333	1182.203125	52.178116
-7408.298883	4188.708333	1181.078125	245.212891
-7408.298883	4188.708333	1179.954102	56.890621
-7408.298883	4188.708333	1178.829102	143.305649
-7408.298883	4188.708333	1177.704102	-70.418877
-7408.298883	4188.708333	1176.579102	83.673370
-7408.298883	4188.708333	1175.453125	113.583755
-7408.298883	4188.708333	1174.327148	-85.675865
-7408.298883	4188.708333	1173.201172	96.680931
-7408.298883	4188.708333	1172.075195	-36.373901
-7408.298883	4188.708333	1170.949219	39.923607
-7408.298883	4188.708333	1169.822266	22.315958
-7408.298883	4188.708333	1168.695313	7.056314
-7408.298883	4188.708333	1167.568359	25.492626
-7408.298883	4188.708333	1166.440430	-90.649239
-7408.298883	4188.708333	1165.313477	-25.095524
-7408.298883	4188.708333	1164.185547	-139.461212
-7408.298883	4188.708333	1163.057617	-147.638550
-7408.298883	4188.708333	1161.928711	-100.340218
-7408.298883	4188.708333	1160.800781	-95.060844
-7408.298883	4188.708333	1159.671875	-7.177269
-7408.298883	4188.708333	1158.541992	-37.987091
-7408.298883	4188.708333	1157.413086	-37.976997
-7408.298883	4188.708333	1156.283203	-105.663589
-7408.298883	4188.708333	1155.154297	-244.091080
-7408.298883	4188.708333	1154.023438	-226.127975
-7408.298883	4188.708333	1152.893555	-113.548645
-7408.298883	4188.708333	1151.763672	-83.905701
-7408.298883	4188.708333	1150.632813	19.240339
-7408.298883	4188.708333	1149.501953	-38.279831
-7408.298883	4188.708333	1148.370117	-45.058994
-7408.298883	4188.708333	1147.239258	18.129511
-7408.298883	4188.708333	1146.107422	-197.394409
-7408.298883	4188.708333	1144.975586	9.089716
-7408.298883	4188.708333	1143.843750	152.143784
-7408.298883	4188.708333	1142.710938	140.208084
-7408.298883	4188.708333	1141.578125	-34.477287
-7408.298883	4188.708333	1140.445313	108.298996
-7408.298883	4188.708333	1139.312500	-160.157990
-7408.298883	4188.708333	1138.178711	183.494308
-7408.298883	4188.708333	1137.045898	-26.380203
-7408.298883	4188.708333	1135.912109	6.543781
-7408.298883	4188.708333	1134.777344	31.109341
-7408.298883	4188.708333	1133.643555	-46.234421
-7408.298883	4188.708333	1132.508789	-15.129195
-7408.298883	4188.708333	1131.374023	4.573626
-7408.298883	4188.708333	1130.239258	182.086380
-7408.298883	4188.708333	1129.104492	59.353859
-7408.298883	4188.708333	1127.968750	343.794495
-7408.298883	4188.708333	1126.833008	187.092209
-7408.298883	4188.708333	1125.697266	-83.032814
-7408.298883	4188.708333	1124.560547	66.829971
-7408.298883	4188.708333	1123.424805	17.445761
-7408.298883	4188.708333	1122.288086	63.851967
-7408.298883	4188.708333	1121.151367	143.221970
-7408.298883	4188.708333	1120.013672	-152.260376
-7408.298883	4188.708333	1118.876953	79.139214
-7408.298883	4188.708333	1117.739258	79.938309
-7408.298883	4188.708333	1116.601563	-36.044003
-7408.298883	4188.708333	1115.462891	102.218758
-7408.298883	4188.708333	1114.324219	-18.242342
-7408.298883	4188.708333	1113.186523	-209.672424
-7408.298883	4188.708333	1112.046875	27.848547
-7408.298883	4188.708333	1110.908203	38.249222
-7408.298883	4188.708333	1109.769531	64.596077
-7408.298883	4188.708333	1108.629883	-47.247711
-7408.298883	4188.708333	1107.490234	3.295120
-7408.298883	4188.708333	1106.349609	-144.385956
-7408.298883	4188.708333	1105.209961	-119.009720
-7408.298883	4188.708333	1104.069336	160.919006
-7408.298883	4188.708333	1102.928711	-64.908058
-7408.298883	4188.708333	1101.787109	57.058544
-7408.298883	4188.708333	1100.646484	270.323090
-7408.298883	4188.708333	1099.504883	83.300331
-7408.298883	4188.708333	1098.363281	411.440979
-7408.298883	4188.708333	1097.221680	60.564938
-7408.298883	4188.708333	1096.079102	353.094543
-7408.298883	4188.708333	1094.936523	160.948441
-7408.298883	4188.708333	1093.793945	210.096924
-7408.298883	4188.708333	1092.651367	186.924408
-7408.298883	4188.708333	1091.507813	168.422394
-7408.298883	4188.708333	1090.364258	-64.325233
-7408.298883	4188.708333	1089.220703	66.454605
-7408.298883	4188.708333	1088.077148	214.035980
-7408.298883	4188.708333	1086.933594	72.244751
-7408.298883	4188.708333	1085.789063	119.732338
-7408.298883	4188.708333	1084.644531	18.709852
-7408.298883	4188.708333	1083.499023	-127.689911
-7408.298883	4188.708333	1082.354492	5.900255
-7408.298883	4188.708333	1081.208984	-5.217640
-7408.298883	4188.708333	1080.063477	-55.399662
-7408.298883	4188.708333	1078.917969	113.237694
-7408.298883	4188.708333	1077.771484	114.723488
-7408.298883	4188.708333	1076.625977	109.152031
-7408.298883	4188.708333	1075.479492	-53.240574
-7408.298883	4188.708333	1074.332031	56.148769
-7408.298883	4188.708333	1073.185547	143.759415
-7408.298883	4188.708333	1072.038086	-14.473586
-7408.298883	4188.708333	1070.890625	49.695709
-7408.298883	4188.708333	1069.743164	188.773911
-7408.298883	4188.708333	1068.594727	182.377594
-7408.298883	4188.708333	1067.447266	42.731838
-7408.298883	4188.708333	1066.298828	56.656929
-7408.298883	4188.708333	1065.149414	21.142733
-7408.298883	4188.708333	1064.000977	1.891217
-7408.298883	4188.708333	1062.851563	273.994843
-7408.298883	4188.708333	1061.702148	231.721481
-7408.298883	4188.708333	1060.552734	147.344421
-7408.298883	4188.708333	1059.402344	-96.110931
-7408.298883	4188.708333	1058.252930	117.497391
-7408.298883	4188.708333	1057.102539	-23.948627
-7408.298883	4188.708333	1055.951172	10.386634
-7408.298883	4188.708333	1054.800781	157.580093
-7408.298883	4188.708333	1053.649414	36.318085
-7408.298883	4188.708333	1052.498047	34.865128
-7408.298883	4188.708333	1051.346680	-51.150993
-7408.298883	4188.708333	1050.194336	49.669739
-7408.298883	4188.708333	1049.042969	-80.007301
-7408.298883	4188.708333	1047.890625	75.082840
-7408.298883	4188.708333	1046.738281	95.711792
-7408.298883	4188.708333	1045.584961	-32.891537
-7408.298883	4188.708333	1044.431641	62.061226
-7408.298883	4188.708333	1043.278320	-32.930004
-7408.298883	4188.708333	1042.125000	-111.317451
-7408.298883	4188.708333	1040.971680	-72.292603
-7408.298883	4188.708333	1039.817383	161.540207
-7408.298883	4188.708333	1038.663086	-82.116295
-7408.298883	4188.708333	1037.508789	-33.881287
-7408.298883	4188.708333	1036.353516	236.812607
-7408.298883	4188.708333	1035.198242	6.551132
-7408.298883	4188.708333	1034.042969	78.920189
-7408.298883	4188.708333	1032.887695	141.993958
-7408.298883	4188.708333	1031.732422	207.714828
-7408.298883	4188.708333	1030.576172	174.777832
-7408.298883	4188.708333	1029.419922	214.733887
-7408.298883	4188.708333	1028.263672	182.357407
-7408.298883	4188.708333	1027.106445	196.476105
-7408.298883	4188.708333	1025.949219	197.451614
-7408.298883	4188.708333	1024.792969	203.688782
-7408.298883	4188.708333	1023.634766	89.117699
-7408.298883	4188.708333	1022.477539	129.387421
-7408.298883	4188.708333	1021.319336	150.926453
-7408.298883	4188.708333	1020.161133	200.430740
-7408.298883	4188.708333	1019.002930	-12.063530
-7408.298883	4188.708333	1017.843750	82.987740
-7408.298883	4188.708333	1016.684570	-123.649002
-7408.298883	4188.708333	1015.525391	-16.244209
-7408.298883	4188.708333	1014.366211	82.586960
-7408.298883	4188.708333	1013.207031	21.753773
-7408.298883	4188.708333	1012.046875	-71.113976
-7408.298883	4188.708333	1010.886719	-95.960480
-7408.298883	4188.708333	1009.726563	-31.000484
-7408.298883	4188.708333	1008.565430	-99.061371
-7408.298883	4188.708333	1007.404297	-22.849834
-7408.298883	4188.708333	1006.243164	-91.639206
-7408.298883	4188.708333	1005.082031	44.393879
-7408.298883	4188.708333	1003.920898	-58.764130
-7408.298883	4188.708333	1002.758789	-45.167419
-7408.298883	4188.708333	1001.596680	140.449295
-7408.298883	4188.708333	1000.433594	236.767075
-7408.298883	4188.708333	999.271484	62.631191
-7408.298883	4188.708333	998.108398	267.654572
-7408.298883	4188.708333	996.945313	168.914276
-7408.298883	4188.708333	995.782227	20.874313
-7408.298883	4188.708333	994.618164	-82.521790
-7408.298883	4188.708333	993.454102	-203.107956
-7408.298883	4188.708333	992.290039	-100.503113
-7408.298883	4188.708333	991.125977	121.700127
-7408.298883	4188.708333	989.960938	76.352303
-7408.298883	4188.708333	988.796875	-86.652412
-7408.298883	4188.708333	987.630859	8.206800
-7408.298883	4188.708333	986.465820	85.135109
-7408.298883	4188.708333	985.300781	185.127563
-7408.298883	4188.708333	984.134766	91.499283
-7408.298883	4188.708333	982.968750	41.253826
-7408.298883	4188.708333	981.801758	-188.701965
-7408.298883	4188.708333	980.635742	124.745613
-7408.298883	4188.708333	979.468750	4.170705
-7408.298883	4188.708333	978.301758	170.876907
-7408.298883	4188.708333	977.133789	33.516949
-7408.298883	4188.708333	975.966797	17.647360
-7408.298883	4188.708333	974.798828	-9.516502
-7408.298883	4188.708333	973.630859	5.039132
-7408.298883	4188.708333	972.461914	-166.641586
-7408.298883	4188.708333	971.293945	-43.114971
-7408.298883	4188.708333	970.125000	-82.502991
-7408.298883	4188.708333	968.956055	-18.784803
-7408.298883	4188.708333	967.786133	184.268127
-7408.298883	4188.708333	966.617188	-144.908905
-7408.298883	4188.708333	965.447266	-2.588612
-7408.298883	4188.708333	964.276367	-100.204460
-7408.298883	4188.708333	963.106445	-147.210480
-7408.298883	4188.708333	961.935547	106.349808
-7408.298883	4188.708333	960.764648	-23.716261
-7408.298883	4188.708333	959.593750	16.385565
-7408.298883	4188.708333	958.422852	-29.131516
-7408.298883	4188.708333	957.250977	56.939140
-7408.298883	4188.708333	956.079102	65.198059
-7408.298883	4188.708333	954.907227	64.733437
-7408.298883	4188.708333	953.734375	57.790863
-7408.298883	4188.708333	952.562500	-55.397247
-7408.298883	4188.708333	951.389648	105.407944
-7408.298883	4188.708333	950.215820	9.324781
-7408.298883	4188.708333	949.042969	-105.486275
-7408.298883	4188.708333	947.869141	59.470161
-7408.298883	4188.708333	946.695313	16.865345
-7408.298883	4188.708333	945.521484	102.967186
-7408.298883	4188.708333	944.346680	-70.002525
-7408.298883	4188.708333	943.172852	-119.302788
-7408.298883	4188.708333	941.998047	157.863113
-7408.298883	4188.708333	940.822266	119.396751
-7408.298883	4188.708333	939.647461	-14.832649
-7408.298883	4188.708333	938.471680	27.352211
-7408.298883	4188.708333	937.295898	105.182526
-7408.298883	4188.708333	936.119141	-93.480553
-7408.298883	4188.708333	934.943359	-103.325081
-7408.298883	4188.708333	933.766602	-77.569595
-7408.298883	4188.708333	932.589844	-23.123339
-7408.298883	4188.708333	931.413086	163.969131
-7408.298883	4188.708333	930.235352	66.984764
-7408.298883	4188.708333	929.057617	48.792778
-7408.298883	4188.708333	927.879883	7.667950
-7408.298883	4188.708333	926.702148	146.942688
-7408.298883	4188.708333	925.523438	163.793213
-7408.298883	4188.708333	924.344727	-78.408180
-7408.298883	4188.708333	923.166016	71.002953
-7408.298883	4188.708333	921.987305	170.606094
-7408.298883	4188.708333	920.807617	81.674965
-7408.298883	4188.708333	919.627930	86.243164
-7408.298883	4188.708333	919.497070	18.086071
-7408.298883	4188.708333	918.331055	113.319336
-7408.298883	4188.708333	917.165039	-23.340717
-7408.298883	4188.708333	915.999023	53.149246
-7408.298883	4188.708333	914.833008	129.564987
-7408.298883	4188.708333	913.666016	81.800087
-7408.298883	4188.708333	912.499023	73.304413
-7408.298883	4188.708333	911.332031	-11.732223
-7408.298883	4188.708333	910.165039	47.926884
-7408.298883	4188.708333	908.997070	-159.092392
-7408.298883	4188.708333	907.830078	-87.113968
-7408.298883	4188.708333	906.661133	3.393219
-7408.298883	4188.708333	905.493164	21.525818
-7408.298883	4188.708333	904.325195	184.167465
-7408.298883	4188.708333	903.156250	-95.136208
-7408.298883	4188.708333	901.987305	42.613781
-7408.298883	4188.708333	900.818359	-26.116365
-7408.298883	4188.708333	899.648438	80.536247
-7408.298883	4188.708333	898.478516	-33.635330
-7408.298883	4188.708333	897.308594	13.081190
-7408.298883	4188.708333	896.138672	202.029922
-7408.298883	4188.708333	894.968750	-37.979191
-7408.298883	4188.708333	893.797852	18.904856
-7408.298883	4188.708333	892.626953	287.999695
-7408.298883	4188.708333	891.456055	-19.984354
-7408.298883	4188.708333	890.284180	244.817307
-7408.298883	4188.708333	889.113281	58.411900
-7408.298883	4188.708333	887.941406	236.529190
-7408.298883	4188.708333	886.768555	167.485855
-7408.298883	4188.708333	885.596680	3.747313
-7408.298883	4188.708333	884.423828	-15.900225
-7408.298883	4188.708333	883.250977	120.796661
-7408.298883	4188.708333	882.078125	86.663506
-7408.298883	4188.708333	880.905273	118.324707
-7408.298883	4188.708333	879.731445	75.915062
-7408.298883	4188.708333	878.557617	74.606071
-7408.298883	4188.708333	877.383789	7.489876
-7408.298883	4188.708333	876.209961	34.898861
-7408.298883	4188.708333	875.035156	-3.479555
-7408.298883	4188.708333	873.860352	114.241081
-7408.298883	4188.708333	872.685547	293.494690
-7408.298883	4188.708333	871.510742	207.763077
-7408.298883	4188.708333	870.334961	68.662247
-7408.298883	4188.708333	869.159180	32.211563
-7408.298883	4188.708333	867.983398	149.649643
-7408.298883	4188.708333	866.807617	31.069567
-7408.298883	4188.708333	865.630859	54.044296
-7408.298883	4188.708333	864.454102	154.910660
-7408.298883	4188.708333	863.277344	36.315464
-7408.298883	4188.708333	862.100586	-80.211678
-7408.298883	4188.708333	860.922852	-32.753212
-7408.298883	4188.708333	859.745117	211.371536
-7408.298883	4188.708333	858.567383	119.381638
-7408.298883	4188.708333	857.389648	90.896523
-7408.298883	4188.708333	856.210938	25.536776
-7408.298883	4188.708333	855.032227	138.303467
-7408.298883	4188.708333	853.853516	189.585556
-7408.298883	4188.708333	852.674805	75.044487
-7408.298883	4188.708333	851.495117	83.296806
-7408.298883	4188.708333	850.315430	-66.004967
-7408.298883	4188.708333	849.135742	154.935364
-7408.298883	4188.708333	847.956055	105.829002
-7408.298883	4188.708333	846.775391	295.925232
-7408.298883	4188.708333	845.595703	58.703819
-7408.298883	4188.708333	844.415039	83.144478
-7408.298883	4188.708333	843.233398	130.026703
-7408.298883	4188.708333	842.052734	64.509102
-7408.298883	4188.708333	840.871094	105.199165
-7408.298883	4188.708333	839.689453	170.353088
-7408.298883	4188.708333	838.506836	35.384029
-7408.298883	4188.708333	837.325195	139.258377
-7408.298883	4188.708333	836.142578	151.235779
-7408.298883	4188.708333	834.959961	20.363514
-7408.298883	4188.708333	833.777344	-94.158966
-7408.298883	4188.708333	832.593750	85.026695
-7408.298883	4188.708333	831.410156	33.704151
-7408.298883	4188.708333	830.226563	337.099213
-7408.298883	4188.708333	829.042969	22.772623
-7408.298883	4188.708333	827.858398	93.694977
-7408.298883	4188.708333	826.673828	28.063061
-7408.298883	4188.708333	825.489258	353.528442
-7408.298883	4188.708333	824.304688	206.365738
-7408.298883	4188.708333	823.120117	120.325119
-7408.298883	4188.708333	821.934570	70.942505
-7408.298883	4188.708333	820.749023	96.862984
-7408.298883	4188.708333	819.562500	134.962250
-7408.298883	4188.708333	818.376953	12.303892
-7408.298883	4188.708333	817.190430	-41.166584
-7408.298883	4188.708333	816.003906	57.883484
-7408.298883	4188.708333	814.817383	126.373192
-7408.298883	4188.708333	813.629883	-169.043533
-7408.298883	4188.708333	812.442383	-29.442236
-7408.298883	4188.708333	811.254883	118.208504
-7408.298883	4188.708333	810.067383	30.126581
-7408.298883	4188.708333	808.878906	-94.496078
-7408.298883	4188.708333	807.690430	-245.485931
-7408.298883	4188.708333	806.501953	82.699135
-7408.298883	4188.708333	805.313477	-29.737617
-7408.298883	4188.708333	804.124023	174.437622
-7408.298883	4188.708333	802.934570	80.251953
-7408.298883	4188.708333	801.745117	10.428158
-7408.298883	4188.708333	800.555664	54.188980
-7408.298883	4188.708333	799.365234	108.052345
-7408.298883	4188.708333	798.175781	88.890869
-7408.298883	4188.708333	796.985352	45.396530
-7408.298883	4188.708333	795.793945	22.167988
-7408.298883	4188.708333	794.603516	23.241037
-7408.298883	4188.708333	793.412109	20.244059
-7408.298883	4188.708333	792.220703	35.457188
-7408.298883	4188.708333	791.028320	107.339615
-7408.298883	4188.708333	789.836914	-102.211449
-7408.298883	4188.708333	788.644531	-40.486702
-7408.298883	4188.708333	787.452148	-110.334877
-7408.298883	4188.708333	786.258789	88.899422
-7408.298883	4188.708333	785.066406	25.084217
-7408.298883	4188.708333	783.873047	-103.433640
-7408.298883	4188.708333	782.679688	-235.959869
-7408.298883	4188.708333	781.485352	-95.558891
-7408.298883	4188.708333	780.291992	-46.179962
-7408.298883	4188.708333	779.097656	-134.238083
-7408.298883	4188.708333	777.903320	-10.162965
-7408.298883	4188.708333	776.708008	-138.622620
-7408.298883	4188.708333	775.512695	-234.738129
-7408.298883	4188.708333	774.318359	-82.510406
-7408.298883	4188.708333	773.122070	-152.393799
-7408.298883	4188.708333	771.926758	-123.383217
-7408.298883	4188.708333	770.730469	-35.891968
-7408.298883	4188.708333	769.534180	-119.919014
-7408.298883	4188.708333	768.337891	-119.223190
-7408.298883	4188.708333	767.141602	26.631021
-7408.298883	4188.708333	765.944336	-45.316563
-7408.298883	4188.708333	764.747070	41.975170
-7408.298883	4188.708333	763.549805	107.044243
-7408.298883	4188.708333	762.351563	-47.533436
-7408.298883	4188.708333	761.154297	-113.439156
-7408.298883	4188.708333	759.956055	-165.238876
-7408.298883	4188.708333	758.757813	6.455269
-7408.298883	4188.708333	757.558594	-224.543625
-7408.298883	4188.708333	756.359375	-113.325211
-7408.298883	4188.708333	755.160156	34.046940
-7408.298883	4188.708333	753.960938	-106.344254
-7408.298883	4188.708333	752.761719	-59.641464
-7408.298883	4188.708333	751.561523	-49.174244
-7408.298883	4188.708333	750.361328	-32.700184
-7408.298883	4188.708333	749.160156	-167.008835
-7408.298883	4188.708333	747.959961	-76.200134
-7408.298883	4188.708333	746.758789	8.523838
-7408.298883	4188.708333	745.557617	-204.114960
-7408.298883	4188.708333	744.356445	61.314991
-7408.298883	4188.708333	743.154297	-147.271866
-7408.298883	4188.708333	741.952148	-82.762909
-7408.298883	4188.708333	740.750000	-50.416088
-7408.298883	4188.708333	739.547852	-8.070397
-7408.298883	4188.708333	738.344727	-102.193314
-7408.298883	4188.708333	737.142578	-33.821026
-7408.298883	4188.708333	735.939453	-33.685238
-7408.298883	4188.708333	734.735352	60.666977
-7408.298883	4188.708333	733.532227	263.207336
-7408.298883	4188.708333	732.328125	-9.358473
-7408.298883	4188.708333	731.124023	90.874275
-7408.298883	4188.708333	729.918945	-89.431175
-7408.298883	4188.708333	728.714844	-23.319572
-7408.298883	4188.708333	727.509766	-109.451599
-7408.298883	4188.708333	726.303711	72.713531
-7408.298883	4188.708333	725.098633	8.569663
-7408.298883	4188.708333	723.892578	60.503834
-7408.298883	4188.708333	722.686523	112.392570
-7408.298883	4188.708333	721.480469	134.227890
-7408.298883	4188.708333	720.274414	162.031097
-7408.298883	4188.708333	719.067383	-114.142159
-7408.298883	4188.708333	717.860352	33.603249
-7408.298883	4188.708333	716.653320	-88.571716
-7408.298883	4188.708333	715.445313	93.030121
-7408.298883	4188.708333	714.238281	28.784355
-7408.298883	4188.708333	713.030273	4.489791
-7408.298883	4188.708333	711.821289	10.137398
-7408.298883	4188.708333	710.613281	143.543320
-7408.298883	4188.708333	709.404297	13.361700
-7408.298883	4188.708333	708.195313	44.871628
-7408.298883	4188.708333	706.986328	-111.227867
-7408.298883	4188.708333	705.776367	-57.813019
-7408.298883	4188.708333	704.566406	-36.360550
-7408.298883	4188.708333	703.356445	4.997523
-7408.298883	4188.708333	702.146484	-33.439186
-7408.298883	4188.708333	700.935547	23.792847
-7408.298883	4188.708333	699.724609	-0.737116
-7408.298883	4188.708333	698.513672	-174.720657
-7408.298883	4188.708333	697.302734	7.922096
-7408.298883	4188.708333	696.090820	-22.647158
-7408.298883	4188.708333	694.878906	157.839172
-7408.298883	4188.708333	693.666992	184.927780
-7408.298883	4188.708333	692.455078	40.801090
-7408.298883	4188.708333	691.242188	-117.224014
-7408.298883	4188.708333	690.029297	80.919945
-7408.298883	4188.708333	688.816406	-128.822861
-7408.298883	4188.708333	687.602539	212.369263
-7408.298883	4188.708333	686.389648	179.585770
-7408.298883	4188.708333	685.175781	118.956528
-7408.298883	4188.708333	683.960938	288.868011
-7408.298883	4188.708333	682.747070	142.736038
-7408.298883	4188.708333	681.532227	119.806534
-7408.298883	4188.708333	680.317383	249.794632
-7408.298883	4188.708333	679.102539	-11.505857
-7408.298883	4188.708333	677.886719	76.699226
-7408.298883	4188.708333	676.670898	63.602665
-7408.298883	4188.708333	675.455078	219.166214
-7408.298883	4188.708333	674.239258	283.362396
-7408.298883	4188.708333	673.022461	182.851501
-7408.298883	4188.708333	671.805664	46.651619
-7408.298883	4188.708333	670.588867	92.902245
-7408.298883	4188.708333	669.372070	28.081781
-7408.298883	4188.708333	668.154297	22.717623
-7408.298883	4188.708333	666.936523	209.539886
-7408.298883	4188.708333	665.718750	221.904877
-7408.298883	4188.708333	664.500977	216.404312
-7408.298883	4188.708333	663.282227	97.992241
-7408.298883	4188.708333	662.063477	191.450668
-7408.298883	4188.708333	660.844727	203.675003
-7408.298883	4188.708333	659.625000	176.278427
-7408.298883	4188.708333	658.405273	43.988335
-7408.298883	4188.708333	657.185547	-46.735382
-7408.298883	4188.708333	655.965820	163.180435
-7408.298883	4188.708333	654.745117	181.160416
-7408.298883	4188.708333	653.525391	343.422455
-7408.298883	4188.708333	652.303711	43.054001
-7408.298883	4188.708333	651.083008	70.826859
-7408.298883	4188.708333	649.861328	219.073669
-7408.298883	4188.708333	648.640625	260.556488
-7408.298883	4188.708333	647.417969	272.361511
-7408.298883	4188.708333	646.196289	238.714005
-7408.298883	4188.708333	644.973633	250.448380
-7408.298883	4188.708333	643.750977	420.038513
-7408.298883	4188.708333	642.528320	313.265656
-7408.298883	4188.708333	641.305664	103.915932
-7408.298883	4188.708333	640.082031	279.241882
-7408.298883	4188.708333	638.858398	478.122803
-7408.298883	4188.708333	637.634766	268.765717
-7408.298883	4188.708333	636.410156	390.618439
-7408.298883	4188.708333	635.185547	189.180481
-7408.298883	4188.708333	633.960938	273.492889
-7408.298883	4188.708333	632.736328	206.050842
-7408.298883	4188.708333	631.510742	118.906563
-7408.298883	4188.708333	630.285156	268.055786
-7408.298883	4188.708333	629.059570	109.993706
-7408.298883	4188.708333	627.833984	148.790726
-7408.298883	4188.708333	626.607422	236.731430
-7408.298883	4188.708333	625.380859	-13.795741
-7408.298883	4188.708333	624.154297	266.840179
-7408.298883	4188.708333	622.927734	193.337616
-7408.298883	4188.708333	621.700195	286.954651
-7408.298883	4188.708333	620.472656	248.792770
-7408.298883	4188.708333	619.245117	-5.572639
-7408.298883	4188.708333	618.016602	197.960236
-7408.298883	4188.708333	616.788086	12.403146
-7408.298883	4188.708333	615.559570	213.814880
-7408.298883	4188.708333	614.331055	240.343079
-7408.298883	4188.708333	613.101563	43.014355
-7408.298883	4188.708333	611.872070	18.465572
-7408.298883	4188.708333	610.642578	278.445984
-7408.298883	4188.708333	609.413086	39.936314
-7408.298883	4188.708333	608.182617	-74.926582
-7408.298883	4188.708333	606.952148	33.800003
-7408.298883	4188.708333	605.721680	209.115356
-7408.298883	4188.708333	604.491211	137.322479
-7408.298883	4188.708333	603.259766	55.728138
-7408.298883	4188.708333	602.028320	19.205812
-7408.298883	4188.708333	600.796875	86.499954
-7408.298883	4188.708333	599.564453	55.801067
-7408.298883	4188.708333	598.332031	-29.746756
-7408.298883	4188.708333	597.099609	39.382217
-7408.298883	4188.708333	595.867188	79.090683
-7408.298883	4188.708333	594.633789	314.451904
-7408.298883	4188.708333	593.400391	222.934357
-7408.298883	4188.708333	592.166992	221.412399
-7408.298883	4188.708333	590.933594	257.022217
-7408.298883	4188.708333	589.699219	91.187569
-7408.298883	4188.708333	588.464844	85.700302
-7408.298883	4188.708333	587.230469	39.144821
-7408.298883	4188.708333	585.995117	129.365799
-7408.298883	4188.708333	584.760742	164.822647
-7408.298883	4188.708333	583.525391	-14.619954
-7408.298883	4188.708333	582.289063	-78.797508
-7408.298883	4188.708333	581.053711	104.988762
-7408.298883	4188.708333	579.817383	222.301727
-7408.298883	4188.708333	578.581055	165.850433
-7408.298883	4188.708333	577.343750	54.764668
-7408.298883	4188.708333	576.107422	134.881058
-7408.298883	4188.708333	574.870117	347.560272
-7408.298883	4188.708333	573.631836	183.791031
-7408.298883	4188.708333	572.394531	12.276348
-7408.298883	4188.708333	571.156250	115.631660
-7408.298883	4188.708333	569.917969	-96.760963
-7408.298883	4188.708333	568.679688	35.759174
-7408.298883	4188.708333	567.440430	205.210495
-7408.298883	4188.708333	566.202148	144.777588
-7408.298883	4188.708333	564.961914	265.419830
-7408.298883	4188.708333	563.722656	177.710251
-7408.298883	4188.708333	562.482422	19.957560
-7408.298883	4188.708333	561.243164	105.478302
-7408.298883	4188.708333	560.001953	17.805948
-7408.298883	4188.708333	558.761719	-108.738243
-7408.298883	4188.708333	557.520508	52.542057
-7408.298883	4188.708333	556.279297	100.982224
-7408.298883	4188.708333	555.038086	59.980347
-7408.298883	4188.708333	553.795898	42.298931
-7408.298883	4188.708333	552.554688	84.845505
-7408.298883	4188.708333	551.311523	76.854568
-7408.298883	4188.708333	550.069336	-36.010616
-7408.298883	4188.708333	548.826172	-59.525494
-7408.298883	4188.708333	547.583984	-131.565674
-7408.298883	4188.708333	546.339844	122.459732
-7408.298883	4188.708333	545.096680	52.332214
-7408.298883	4188.708333	543.852539	-105.072334
-7408.298883	4188.708333	542.608398	100.274918
-7408.298883	4188.708333	541.364258	-74.536507
-7408.298883	4188.708333	540.119141	-165.917969
-7408.298883	4188.708333	538.875000	83.875076
-7408.298883	4188.708333	537.628906	79.692230
-7408.298883	4188.708333	536.383789	27.073839
-7408.298883	4188.708333	535.137695	86.820541
-7408.298883	4188.708333	533.892578	-62.612167
-7408.298883	4188.708333	532.645508	30.037386
-7408.298883	4188.708333	531.399414	60.704063
-7408.298883	4188.708333	530.152344	-44.121082
-7408.298883	4188.708333	528.905273	-71.503967
-7408.298883	4188.708333	527.658203	141.010086
-7408.298883	4188.708333	526.410156	245.121002
-7408.298883	4188.708333	525.163086	262.173828
-7408.298883	4188.708333	523.914063	188.352127
-7408.298883	4188.708333	522.666016	201.547638
-7408.298883	4188.708333	521.416992	85.264107
-7408.298883	4188.708333	520.167969	26.995068
-7408.298883	4188.708333	518.918945	159.988098
-7408.298883	4188.708333	517.669922	159.675308
-7408.298883	4188.708333	516.419922	248.182343
-7408.298883	4188.708333	515.169922	141.688202
-7408.298883	4188.708333	513.919922	-59.322315
-7408.298883	4188.708333	512.668945	96.726578
-7408.298883	4188.708333	511.417969	-123.467644
-7408.298883	4188.708333	510.166992	65.331726
-7408.298883	4188.708333	508.916016	-31.333002
-7408.298883	4188.708333	507.664063	-48.906605
-7408.298883	4188.708333	506.412109	-157.055984
-7408.298883	4188.708333	505.160156	-8.848280
-7408.298883	4188.708333	503.907227	-24.463675
-7408.298883	4188.708333	502.655273	-70.880974
-7408.298883	4188.708333	501.402344	-47.941307
-7408.298883	4188.708333	500.148438	206.045914
-7408.298883	4188.708333	498.895508	182.736481
-7408.298883	4188.708333	497.641602	290.315582
-7408.298883	4188.708333	496.387695	166.957794
-7408.298883	4188.708333	495.132813	222.569626
-7408.298883	4188.708333	493.878906	145.459991
-7408.298883	4188.708333	492.624023	22.239750
-7408.298883	4188.708333	491.368164	124.014259
-7408.298883	4188.708333	490.113281	47.001400
-7408.298883	4188.708333	488.857422	179.492630
-7408.298883	4188.708333	487.601563	87.146477
-7408.298883	4188.708333	486.344727	35.184666
-7408.298883	4188.708333	485.088867	-12.903724
-7408.298883	4188.708333	483.832031	111.836685
-7408.298883	4188.708333	482.575195	-183.865509
-7408.298883	4188.708333	481.317383	-120.544670
-7408.298883	4188.708333	480.059570	155.740555
-7408.298883	4188.708333	478.801758	203.625214
-7408.298883	4188.708333	477.543945	-49.626823
-7408.298883	4188.708333	476.285156	55.814098
-7408.298883	4188.708333	475.027344	-122.522522
-7408.298883	4188.708333	473.767578	-86.111008
-7408.298883	4188.708333	472.508789	-120.615799
-7408.298883	4188.708333	471.249023	-122.538170
-7408.298883	4188.708333	469.989258	130.297974
-7408.298883	4188.708333	468.729492	-99.576454
-7408.298883	4188.708333	467.469727	-176.182373
-7408.298883	4188.708333	466.208984	-80.481781
-7408.298883	4188.708333	464.948242	-53.727657
-7408.298883	4188.708333	463.686523	-59.524761
-7408.298883	4188.708333	462.425781	-132.282928
-7408.298883	4188.708333	461.164063	-151.471939
-7408.298883	4188.708333	459.901367	18.635698
-7408.298883	4188.708333	458.639648	62.479504
-7408.298883	4188.708333	457.376953	-63.827679
-7408.298883	4188.708333	456.114258	-41.048294
-7408.298883	4188.708333	454.851563	-186.428894
-7408.298883	4188.708333	453.587891	-100.651382
-7408.298883	4188.708333	452.324219	92.003899
-7408.298883	4188.708333	451.060547	-108.770508
-7408.298883	4188.708333	449.796875	-225.500931
-7408.298883	4188.708333	448.532227	54.739483
-7408.298883	4188.708333	447.267578	73.414101
-7408.298883	4188.708333	446.002930	248.462982
-7408.298883	4188.708333	444.737305	350.911102
-7408.298883	4188.708333	443.471680	417.033997
-7408.298883	4188.708333	442.206055	383.941162
-7408.298883	4188.708333	440.940430	295.529114
-7408.298883	4188.708333	439.673828	388.118958
-7408.298883	4188.708333	438.407227	276.749359
-7408.298883	4188.708333	437.140625	262.498016
-7408.298883	4188.708333	435.873047	244.364975
-7408.298883	4188.708333	434.605469	269.948181
-7408.298883	4188.708333	433.337891	167.898987
-7408.298883	4188.708333	432.070313	79.124413
-7408.298883	4188.708333	430.801758	167.238770
-7408.298883	4188.708333	429.533203	220.970367
-7408.298883	4188.708333	428.264648	221.319382
-7408.298883	4188.708333	426.996094	94.156914
-7408.298883	4188.708333	425.726563	350.935028
-7408.298883	4188.708333	424.457031	223.549454
-7408.298883	4188.708333	423.186523	236.697739
-7408.298883	4188.708333	421.916992	166.112442
-7408.298883	4188.708333	420.646484	228.363525
-7408.298883	4188.708333	419.375977	354.999542
-7408.298883	4188.708333	418.104492	164.352386
-7408.298883	4188.708333	416.833008	283.019165
-7408.298883	4188.708333	415.561523	395.762482
-7408.298883	4188.708333	414.290039	280.589813
-7408.298883	4188.708333	413.017578	303.744537
-7408.298883	4188.708333	411.746094	118.073586
-7408.298883	4188.708333	410.472656	254.597412
-7408.298883	4188.708333	409.200195	64.786156
-7408.298883	4188.708333	407.926758	248.189774
-7408.298883	4188.708333	406.653320	361.162201
-7408.298883	4188.708333	405.379883	-16.830126
-7408.298883	4188.708333	404.105469	-25.588982
-7408.298883	4188.708333	402.831055	54.382721
-7408.298883	4188.708333	401.556641	188.939194
-7408.298883	4188.708333	400.282227	164.143311
-7408.298883	4188.708333	399.006836	156.075882
-7408.298883	4188.708333	397.731445	126.878059
-7408.298883	4188.708333	396.456055	-103.147072
-7408.298883	4188.708333	395.179688	177.188873
-7408.298883	4188.708333	393.903320	65.656586
-7408.298883	4188.708333	392.626953	210.886215
-7408.298883	4188.708333	391.350586	-22.320606
-7408.298883	4188.708333	390.073242	78.607620
-7408.298883	4188.708333	388.795898	94.065208
-7408.298883	4188.708333	387.518555	262.069427
-7408.298883	4188.708333	386.240234	34.889801
-7408.298883	4188.708333	384.961914	147.162521
-7408.298883	4188.708333	383.683594	75.821625
-7408.298883	4188.708333	382.405273	151.204987
-7408.298883	4188.708333	381.125977	152.449066
-7408.298883	4188.708333	379.846680	258.790314
-7408.298883	4188.708333	378.567383	74.115112
-7408.298883	4188.708333	377.287109	192.489883
-7408.298883	4188.708333	376.006836	176.388199
-7408.298883	4188.708333	374.726563	-36.314754
-7408.298883	4188.708333	373.446289	276.133667
-7408.298883	4188.708333	372.165039	39.601688
-7408.298883	4188.708333	370.883789	122.673088
-7408.298883	4188.708333	369.602539	-116.971359
-7408.298883	4188.708333	368.320313	7.969981
-7408.298883	4188.708333	367.039063	113.312500
-7408.298883	4188.708333	365.755859	-81.382713
-7408.298883	4188.708333	364.473633	31.772846
-7408.298883	4188.708333	363.190430	51.883572
-7408.298883	4188.708333	361.907227	276.122925
-7408.298883	4188.708333	360.624023	106.462723
-7408.298883	4188.708333	359.340820	3.654452
-7408.298883	4188.708333	358.056641	101.035072
-7408.298883	4188.708333	356.772461	60.271309
-7408.298883	4188.708333	355.487305	180.076279
-7408.298883	4188.708333	354.202148	-16.685959
-7408.298883	4188.708333	352.916992	117.944809
-7408.298883	4188.708333	351.631836	159.469147
-7408.298883	4188.708333	350.346680	19.707296
-7408.298883	4188.708333	349.060547	96.517349
-7408.298883	4188.708333	347.774414	-34.226433
-7408.298883	4188.708333	346.487305	34.553478
-7408.298883	4188.708333	345.200195	60.821392
-7408.298883	4188.708333	343.913086	48.319687
-7408.298883	4188.708333	342.625977	175.102493
-7408.298883	4188.708333	341.338867	124.344315
-7408.298883	4188.708333	340.050781	70.329803
-7408.298883	4188.708333	338.762695	220.973343
-7408.298883	4188.708333	337.473633	-8.224505
-7408.298883	4188.708333	336.184570	-16.007174
-7408.298883	4188.708333	334.895508	-60.883976
-7408.298883	4188.708333	333.606445	72.350784
-7408.298883	4188.708333	332.317383	-119.785561
-7408.298883	4188.708333	331.027344	19.445438
-7408.298883	4188.708333	329.736328	-209.704224
-7408.298883	4188.708333	328.446289	-53.397907
-7408.298883	4188.708333	327.155273	-37.339165
-7408.298883	4188.708333	325.864258	90.882217
-7408.298883	4188.708333	324.573242	15.344433
-7408.298883	4188.708333	323.281250	-228.422302
-7408.298883	4188.708333	321.989258	-201.371872
-7408.298883	4188.708333	320.697266	-150.231827
-7408.298883	4188.708333	319.405273	-149.749252
-7408.298883	4188.708333	318.112305	-65.606354
-7408.298883	4188.708333	316.819336	-93.809929
-7408.298883	4188.708333	315.526367	-66.419823
-7408.298883	4188.708333	314.232422	74.235687
-7408.298883	4188.708333	312.938477	-141.889648
-7408.298883	4188.708333	311.644531	-48.973278
-7408.298883	4188.708333	310.349609	30.158346
-7408.298883	4188.708333	309.054688	-96.451370
-7408.298883	4188.708333	307.759766	68.782204
-7408.298883	4188.708333	306.464844	194.002090
-7408.298883	4188.708333	305.168945	85.392570
-7408.298883	4188.708333	303.873047	37.323997
-7408.298883	4188.708333	302.577148	254.479599
-7408.298883	4188.708333	301.281250	418.331390
-7408.298883	4188.708333	299.984375	389.195282
