#X		#Y		#Wave		#Intensity
-7252.263989	3800.962333	1999.946289	-66.722412
-7252.263989	3800.962333	1998.981445	8.591753
-7252.263989	3800.962333	1998.017578	18.605816
-7252.263989	3800.962333	1997.052734	142.219971
-7252.263989	3800.962333	1996.088867	-26.967779
-7252.263989	3800.962333	1995.124023	-87.461655
-7252.263989	3800.962333	1994.159180	22.597658
-7252.263989	3800.962333	1993.193359	-199.551086
-7252.263989	3800.962333	1992.228516	-236.278473
-7252.263989	3800.962333	1991.262695	78.182892
-7252.263989	3800.962333	1990.296875	-21.100985
-7252.263989	3800.962333	1989.331055	92.142822
-7252.263989	3800.962333	1988.365234	61.552284
-7252.263989	3800.962333	1987.398438	109.838562
-7252.263989	3800.962333	1986.432617	88.575089
-7252.263989	3800.962333	1985.465820	343.981323
-7252.263989	3800.962333	1984.499023	62.574165
-7252.263989	3800.962333	1983.532227	-189.322922
-7252.263989	3800.962333	1982.565430	-139.883698
-7252.263989	3800.962333	1981.597656	82.255562
-7252.263989	3800.962333	1980.629883	-73.874283
-7252.263989	3800.962333	1979.662109	56.334686
-7252.263989	3800.962333	1978.694336	255.424759
-7252.263989	3800.962333	1977.726563	9.827696
-7252.263989	3800.962333	1976.758789	1.097149
-7252.263989	3800.962333	1975.790039	135.324997
-7252.263989	3800.962333	1974.821289	39.837299
-7252.263989	3800.962333	1973.852539	193.385452
-7252.263989	3800.962333	1972.883789	-240.353546
-7252.263989	3800.962333	1971.915039	-79.742905
-7252.263989	3800.962333	1970.945313	194.075180
-7252.263989	3800.962333	1969.975586	23.893654
-7252.263989	3800.962333	1969.005859	119.832237
-7252.263989	3800.962333	1968.036133	-16.051018
-7252.263989	3800.962333	1967.066406	264.383820
-7252.263989	3800.962333	1966.096680	414.026489
-7252.263989	3800.962333	1965.125977	189.121750
-7252.263989	3800.962333	1964.155273	111.938118
-7252.263989	3800.962333	1963.184570	-9.641930
-7252.263989	3800.962333	1962.213867	100.110649
-7252.263989	3800.962333	1961.242188	145.734558
-7252.263989	3800.962333	1960.271484	235.541992
-7252.263989	3800.962333	1959.299805	320.306854
-7252.263989	3800.962333	1958.328125	218.014252
-7252.263989	3800.962333	1957.356445	98.466759
-7252.263989	3800.962333	1956.384766	50.196339
-7252.263989	3800.962333	1955.412109	245.256042
-7252.263989	3800.962333	1954.439453	-58.785217
-7252.263989	3800.962333	1953.467773	47.626930
-7252.263989	3800.962333	1952.495117	16.348484
-7252.263989	3800.962333	1951.521484	-81.300323
-7252.263989	3800.962333	1950.548828	105.949883
-7252.263989	3800.962333	1949.575195	25.416355
-7252.263989	3800.962333	1948.601563	-77.226891
-7252.263989	3800.962333	1947.627930	261.985565
-7252.263989	3800.962333	1946.654297	173.989807
-7252.263989	3800.962333	1945.680664	284.756866
-7252.263989	3800.962333	1944.706055	96.139847
-7252.263989	3800.962333	1943.732422	27.762352
-7252.263989	3800.962333	1942.757813	-52.876003
-7252.263989	3800.962333	1941.783203	143.574081
-7252.263989	3800.962333	1940.807617	224.708359
-7252.263989	3800.962333	1939.833008	195.501770
-7252.263989	3800.962333	1938.857422	131.983688
-7252.263989	3800.962333	1937.881836	21.926908
-7252.263989	3800.962333	1936.906250	-48.899555
-7252.263989	3800.962333	1935.930664	110.528107
-7252.263989	3800.962333	1934.955078	108.271683
-7252.263989	3800.962333	1933.978516	25.219234
-7252.263989	3800.962333	1933.001953	57.251556
-7252.263989	3800.962333	1932.025391	84.380379
-7252.263989	3800.962333	1931.048828	33.202320
-7252.263989	3800.962333	1930.072266	-42.414604
-7252.263989	3800.962333	1929.094727	43.446579
-7252.263989	3800.962333	1928.118164	-24.786144
-7252.263989	3800.962333	1927.140625	-181.008224
-7252.263989	3800.962333	1926.163086	166.452515
-7252.263989	3800.962333	1925.184570	37.169064
-7252.263989	3800.962333	1924.207031	10.591438
-7252.263989	3800.962333	1923.228516	-101.475769
-7252.263989	3800.962333	1922.250000	-8.279690
-7252.263989	3800.962333	1921.271484	-108.049644
-7252.263989	3800.962333	1920.292969	92.603111
-7252.263989	3800.962333	1919.314453	-156.036224
-7252.263989	3800.962333	1918.334961	-341.092255
-7252.263989	3800.962333	1917.355469	-47.696358
-7252.263989	3800.962333	1916.375977	84.566368
-7252.263989	3800.962333	1915.396484	-146.708603
-7252.263989	3800.962333	1914.416992	73.389557
-7252.263989	3800.962333	1913.436523	-91.896721
-7252.263989	3800.962333	1912.457031	-10.819936
-7252.263989	3800.962333	1911.476563	77.566925
-7252.263989	3800.962333	1910.496094	-148.476501
-7252.263989	3800.962333	1909.515625	-106.339424
-7252.263989	3800.962333	1908.534180	57.636456
-7252.263989	3800.962333	1907.552734	150.935150
-7252.263989	3800.962333	1906.572266	129.758286
-7252.263989	3800.962333	1905.590820	196.284363
-7252.263989	3800.962333	1904.608398	21.782223
-7252.263989	3800.962333	1903.626953	-128.280975
-7252.263989	3800.962333	1902.644531	-37.313553
-7252.263989	3800.962333	1901.663086	97.452225
-7252.263989	3800.962333	1900.680664	30.270170
-7252.263989	3800.962333	1899.698242	-39.288429
-7252.263989	3800.962333	1898.714844	-60.150349
-7252.263989	3800.962333	1897.732422	-256.041443
-7252.263989	3800.962333	1896.749023	-2.084757
-7252.263989	3800.962333	1895.765625	174.029968
-7252.263989	3800.962333	1894.782227	31.759521
-7252.263989	3800.962333	1893.798828	23.206137
-7252.263989	3800.962333	1892.814453	38.977184
-7252.263989	3800.962333	1891.831055	-10.804175
-7252.263989	3800.962333	1890.846680	160.440353
-7252.263989	3800.962333	1889.862305	-49.527214
-7252.263989	3800.962333	1888.877930	12.483089
-7252.263989	3800.962333	1887.892578	-143.928223
-7252.263989	3800.962333	1886.908203	-149.809326
-7252.263989	3800.962333	1885.922852	-209.035904
-7252.263989	3800.962333	1884.937500	-59.610867
-7252.263989	3800.962333	1883.952148	77.657547
-7252.263989	3800.962333	1882.965820	-59.091072
-7252.263989	3800.962333	1881.980469	-47.883839
-7252.263989	3800.962333	1880.994141	-131.185150
-7252.263989	3800.962333	1880.007813	10.937362
-7252.263989	3800.962333	1879.021484	109.418510
-7252.263989	3800.962333	1878.035156	-194.238541
-7252.263989	3800.962333	1877.047852	-102.979149
-7252.263989	3800.962333	1876.061523	43.961128
-7252.263989	3800.962333	1875.074219	50.445210
-7252.263989	3800.962333	1874.086914	134.404190
-7252.263989	3800.962333	1873.098633	-149.513535
-7252.263989	3800.962333	1872.111328	-101.809380
-7252.263989	3800.962333	1871.123047	-100.071510
-7252.263989	3800.962333	1870.135742	49.226879
-7252.263989	3800.962333	1869.147461	48.547466
-7252.263989	3800.962333	1868.158203	76.896210
-7252.263989	3800.962333	1867.169922	-54.303711
-7252.263989	3800.962333	1866.180664	-74.261490
-7252.263989	3800.962333	1865.192383	-82.117508
-7252.263989	3800.962333	1864.203125	21.177853
-7252.263989	3800.962333	1863.213867	114.780952
-7252.263989	3800.962333	1862.223633	51.371414
-7252.263989	3800.962333	1861.234375	-161.719604
-7252.263989	3800.962333	1860.244141	98.469688
-7252.263989	3800.962333	1859.253906	68.910004
-7252.263989	3800.962333	1858.263672	20.059311
-7252.263989	3800.962333	1857.273438	103.938072
-7252.263989	3800.962333	1856.282227	-116.180367
-7252.263989	3800.962333	1855.291992	35.231350
-7252.263989	3800.962333	1854.300781	196.232651
-7252.263989	3800.962333	1853.309570	89.541283
-7252.263989	3800.962333	1852.317383	197.434464
-7252.263989	3800.962333	1851.326172	-65.883713
-7252.263989	3800.962333	1850.333984	119.101242
-7252.263989	3800.962333	1849.342773	212.458664
-7252.263989	3800.962333	1848.350586	60.075089
-7252.263989	3800.962333	1847.357422	-159.693146
-7252.263989	3800.962333	1846.365234	-59.135090
-7252.263989	3800.962333	1845.372070	43.783218
-7252.263989	3800.962333	1844.379883	35.930000
-7252.263989	3800.962333	1843.386719	44.913391
-7252.263989	3800.962333	1842.393555	68.316376
-7252.263989	3800.962333	1841.399414	55.612381
-7252.263989	3800.962333	1840.406250	115.053497
-7252.263989	3800.962333	1839.412109	164.837616
-7252.263989	3800.962333	1838.417969	123.221596
-7252.263989	3800.962333	1837.423828	144.102829
-7252.263989	3800.962333	1836.429688	3.930457
-7252.263989	3800.962333	1835.434570	-114.583931
-7252.263989	3800.962333	1834.440430	-124.963394
-7252.263989	3800.962333	1833.445313	15.966312
-7252.263989	3800.962333	1832.450195	149.614532
-7252.263989	3800.962333	1831.454102	163.131287
-7252.263989	3800.962333	1830.458984	229.432159
-7252.263989	3800.962333	1829.462891	34.056484
-7252.263989	3800.962333	1828.466797	30.707655
-7252.263989	3800.962333	1827.470703	51.324112
-7252.263989	3800.962333	1826.474609	-14.455508
-7252.263989	3800.962333	1825.478516	142.811157
-7252.263989	3800.962333	1824.481445	-9.352010
-7252.263989	3800.962333	1823.484375	116.620865
-7252.263989	3800.962333	1822.487305	285.659454
-7252.263989	3800.962333	1821.490234	8.831172
-7252.263989	3800.962333	1820.493164	-13.937232
-7252.263989	3800.962333	1819.495117	-144.541916
-7252.263989	3800.962333	1818.498047	141.639572
-7252.263989	3800.962333	1817.500000	-72.839424
-7252.263989	3800.962333	1816.500977	88.634293
-7252.263989	3800.962333	1815.502930	108.767426
-7252.263989	3800.962333	1814.504883	47.473347
-7252.263989	3800.962333	1813.505859	160.847900
-7252.263989	3800.962333	1812.506836	104.265068
-7252.263989	3800.962333	1811.507813	174.440765
-7252.263989	3800.962333	1810.508789	191.927841
-7252.263989	3800.962333	1809.508789	44.368885
-7252.263989	3800.962333	1808.508789	-19.505474
-7252.263989	3800.962333	1807.508789	224.942596
-7252.263989	3800.962333	1806.508789	337.807983
-7252.263989	3800.962333	1805.508789	268.989319
-7252.263989	3800.962333	1804.508789	102.199654
-7252.263989	3800.962333	1803.507813	112.167305
-7252.263989	3800.962333	1802.506836	148.346878
-7252.263989	3800.962333	1801.505859	-42.359058
-7252.263989	3800.962333	1800.504883	113.085861
-7252.263989	3800.962333	1799.502930	-15.598018
-7252.263989	3800.962333	1798.501953	-10.658311
-7252.263989	3800.962333	1797.500000	197.010452
-7252.263989	3800.962333	1796.498047	-36.737335
-7252.263989	3800.962333	1795.496094	-20.044928
-7252.263989	3800.962333	1794.493164	32.347866
-7252.263989	3800.962333	1793.491211	-122.741524
-7252.263989	3800.962333	1792.488281	34.406158
-7252.263989	3800.962333	1791.485352	41.301899
-7252.263989	3800.962333	1790.482422	138.672623
-7252.263989	3800.962333	1789.478516	85.867188
-7252.263989	3800.962333	1788.475586	75.893097
-7252.263989	3800.962333	1787.471680	253.974976
-7252.263989	3800.962333	1786.467773	-70.420761
-7252.263989	3800.962333	1785.463867	24.181910
-7252.263989	3800.962333	1784.459961	-76.466553
-7252.263989	3800.962333	1783.455078	139.321289
-7252.263989	3800.962333	1782.450195	107.547302
-7252.263989	3800.962333	1781.445313	78.096756
-7252.263989	3800.962333	1780.440430	-172.570847
-7252.263989	3800.962333	1779.435547	-228.245026
-7252.263989	3800.962333	1778.429688	-174.617493
-7252.263989	3800.962333	1777.424805	-40.267090
-7252.263989	3800.962333	1776.418945	-96.141312
-7252.263989	3800.962333	1775.413086	168.673401
-7252.263989	3800.962333	1774.406250	281.291748
-7252.263989	3800.962333	1773.400391	115.932381
-7252.263989	3800.962333	1772.393555	-187.156403
-7252.263989	3800.962333	1771.386719	240.998871
-7252.263989	3800.962333	1770.379883	168.097092
-7252.263989	3800.962333	1769.373047	182.956345
-7252.263989	3800.962333	1768.365234	64.864853
-7252.263989	3800.962333	1767.358398	67.733528
-7252.263989	3800.962333	1766.350586	146.421326
-7252.263989	3800.962333	1765.342773	146.753769
-7252.263989	3800.962333	1764.334961	158.867325
-7252.263989	3800.962333	1763.326172	178.010925
-7252.263989	3800.962333	1762.318359	2.739795
-7252.263989	3800.962333	1761.309570	-49.326981
-7252.263989	3800.962333	1760.300781	9.898239
-7252.263989	3800.962333	1759.291016	5.070408
-7252.263989	3800.962333	1758.282227	-77.975349
-7252.263989	3800.962333	1757.272461	141.999680
-7252.263989	3800.962333	1756.262695	84.846184
-7252.263989	3800.962333	1755.252930	-26.797256
-7252.263989	3800.962333	1754.243164	17.706991
-7252.263989	3800.962333	1753.233398	104.706535
-7252.263989	3800.962333	1752.222656	227.075668
-7252.263989	3800.962333	1751.211914	115.186012
-7252.263989	3800.962333	1750.201172	78.930130
-7252.263989	3800.962333	1749.190430	14.243577
-7252.263989	3800.962333	1748.179688	-393.224213
-7252.263989	3800.962333	1747.167969	-94.016174
-7252.263989	3800.962333	1746.156250	-69.078667
-7252.263989	3800.962333	1745.144531	43.180180
-7252.263989	3800.962333	1744.132813	75.018272
-7252.263989	3800.962333	1743.121094	50.094883
-7252.263989	3800.962333	1742.108398	124.260338
-7252.263989	3800.962333	1741.095703	-73.135391
-7252.263989	3800.962333	1740.083008	-159.607773
-7252.263989	3800.962333	1739.070313	-26.679100
-7252.263989	3800.962333	1738.057617	94.329498
-7252.263989	3800.962333	1737.043945	109.068840
-7252.263989	3800.962333	1736.030273	116.653992
-7252.263989	3800.962333	1735.016602	-47.957802
-7252.263989	3800.962333	1734.002930	84.445602
-7252.263989	3800.962333	1732.989258	-238.158020
-7252.263989	3800.962333	1731.974609	-54.079037
-7252.263989	3800.962333	1730.959961	-91.609215
-7252.263989	3800.962333	1729.945313	9.779065
-7252.263989	3800.962333	1728.930664	92.215019
-7252.263989	3800.962333	1727.916016	-70.337173
-7252.263989	3800.962333	1726.900391	-68.112000
-7252.263989	3800.962333	1725.885742	171.776443
-7252.263989	3800.962333	1724.870117	-68.579628
-7252.263989	3800.962333	1723.853516	-90.105850
-7252.263989	3800.962333	1722.837891	71.797981
-7252.263989	3800.962333	1721.822266	-142.742325
-7252.263989	3800.962333	1720.805664	-253.813110
-7252.263989	3800.962333	1719.789063	-169.772659
-7252.263989	3800.962333	1718.772461	10.539630
-7252.263989	3800.962333	1717.754883	-159.465683
-7252.263989	3800.962333	1716.738281	-42.803783
-7252.263989	3800.962333	1715.720703	45.546196
-7252.263989	3800.962333	1714.703125	-155.109573
-7252.263989	3800.962333	1713.685547	81.038963
-7252.263989	3800.962333	1712.667969	4.757940
-7252.263989	3800.962333	1711.649414	29.373640
-7252.263989	3800.962333	1710.630859	79.729637
-7252.263989	3800.962333	1709.612305	-67.110039
-7252.263989	3800.962333	1708.593750	-59.116543
-7252.263989	3800.962333	1707.575195	21.525158
-7252.263989	3800.962333	1706.555664	-19.886240
-7252.263989	3800.962333	1705.536133	-131.688446
-7252.263989	3800.962333	1704.516602	87.036140
-7252.263989	3800.962333	1703.497070	-95.185532
-7252.263989	3800.962333	1702.477539	-396.913391
-7252.263989	3800.962333	1701.457031	-94.111633
-7252.263989	3800.962333	1700.437500	112.478111
-7252.263989	3800.962333	1699.416992	51.925770
-7252.263989	3800.962333	1698.395508	28.794346
-7252.263989	3800.962333	1697.375000	-41.202347
-7252.263989	3800.962333	1696.354492	118.158920
-7252.263989	3800.962333	1695.333008	99.533791
-7252.263989	3800.962333	1694.311523	45.761059
-7252.263989	3800.962333	1693.290039	-220.929077
-7252.263989	3800.962333	1692.267578	17.622807
-7252.263989	3800.962333	1691.246094	249.020844
-7252.263989	3800.962333	1690.223633	36.046055
-7252.263989	3800.962333	1689.201172	126.982834
-7252.263989	3800.962333	1688.178711	72.928612
-7252.263989	3800.962333	1687.155273	324.939117
-7252.263989	3800.962333	1686.132813	172.642426
-7252.263989	3800.962333	1685.109375	321.659943
-7252.263989	3800.962333	1684.085938	272.067383
-7252.263989	3800.962333	1683.062500	138.388962
-7252.263989	3800.962333	1682.039063	79.416481
-7252.263989	3800.962333	1681.014648	186.120514
-7252.263989	3800.962333	1679.990234	318.405060
-7252.263989	3800.962333	1678.965820	422.595184
-7252.263989	3800.962333	1677.941406	335.424133
-7252.263989	3800.962333	1676.916992	231.918106
-7252.263989	3800.962333	1675.891602	377.891266
-7252.263989	3800.962333	1674.866211	507.449036
-7252.263989	3800.962333	1673.840820	229.018066
-7252.263989	3800.962333	1672.815430	409.737885
-7252.263989	3800.962333	1671.790039	336.384735
-7252.263989	3800.962333	1670.763672	316.589050
-7252.263989	3800.962333	1669.737305	129.073639
-7252.263989	3800.962333	1668.710938	200.062057
-7252.263989	3800.962333	1667.684570	291.939941
-7252.263989	3800.962333	1666.658203	283.655487
-7252.263989	3800.962333	1665.630859	377.727631
-7252.263989	3800.962333	1664.603516	380.984863
-7252.263989	3800.962333	1663.576172	405.142944
-7252.263989	3800.962333	1662.548828	257.146118
-7252.263989	3800.962333	1661.520508	171.948853
-7252.263989	3800.962333	1660.493164	233.238770
-7252.263989	3800.962333	1659.464844	426.962860
-7252.263989	3800.962333	1658.436523	316.127502
-7252.263989	3800.962333	1657.408203	558.499268
-7252.263989	3800.962333	1656.378906	538.221985
-7252.263989	3800.962333	1655.350586	473.801880
-7252.263989	3800.962333	1654.321289	486.006012
-7252.263989	3800.962333	1653.291992	676.963989
-7252.263989	3800.962333	1652.261719	415.143768
-7252.263989	3800.962333	1651.232422	383.184570
-7252.263989	3800.962333	1650.202148	372.091644
-7252.263989	3800.962333	1649.171875	583.705627
-7252.263989	3800.962333	1648.141602	456.556702
-7252.263989	3800.962333	1647.111328	503.372498
-7252.263989	3800.962333	1646.080078	550.144287
-7252.263989	3800.962333	1645.049805	367.384521
-7252.263989	3800.962333	1644.018555	441.944000
-7252.263989	3800.962333	1642.987305	632.327515
-7252.263989	3800.962333	1641.955078	630.311523
-7252.263989	3800.962333	1640.923828	480.039429
-7252.263989	3800.962333	1639.891602	538.242798
-7252.263989	3800.962333	1638.859375	501.475281
-7252.263989	3800.962333	1637.827148	689.276978
-7252.263989	3800.962333	1636.794922	464.988647
-7252.263989	3800.962333	1635.761719	608.728577
-7252.263989	3800.962333	1634.729492	590.450745
-7252.263989	3800.962333	1633.696289	685.515625
-7252.263989	3800.962333	1632.662109	551.557007
-7252.263989	3800.962333	1631.628906	521.714539
-7252.263989	3800.962333	1630.594727	730.000916
-7252.263989	3800.962333	1629.561523	556.815552
-7252.263989	3800.962333	1628.527344	654.079468
-7252.263989	3800.962333	1627.493164	802.139221
-7252.263989	3800.962333	1626.458008	910.861206
-7252.263989	3800.962333	1625.423828	827.843933
-7252.263989	3800.962333	1624.388672	913.430237
-7252.263989	3800.962333	1623.353516	786.574280
-7252.263989	3800.962333	1622.318359	939.083679
-7252.263989	3800.962333	1621.282227	874.586426
-7252.263989	3800.962333	1620.247070	851.665405
-7252.263989	3800.962333	1619.210938	519.610840
-7252.263989	3800.962333	1618.174805	826.613098
-7252.263989	3800.962333	1617.137695	914.415466
-7252.263989	3800.962333	1616.101563	1087.512817
-7252.263989	3800.962333	1615.064453	896.320496
-7252.263989	3800.962333	1614.027344	974.872559
-7252.263989	3800.962333	1612.990234	984.279358
-7252.263989	3800.962333	1611.953125	1118.104370
-7252.263989	3800.962333	1610.916016	1072.227417
-7252.263989	3800.962333	1609.877930	832.923279
-7252.263989	3800.962333	1608.839844	1203.901611
-7252.263989	3800.962333	1607.801758	934.774719
-7252.263989	3800.962333	1606.763672	1105.383423
-7252.263989	3800.962333	1605.724609	868.627502
-7252.263989	3800.962333	1604.685547	1057.622803
-7252.263989	3800.962333	1603.646484	1145.352783
-7252.263989	3800.962333	1602.607422	1051.384644
-7252.263989	3800.962333	1601.568359	1081.645264
-7252.263989	3800.962333	1600.528320	803.850830
-7252.263989	3800.962333	1599.489258	1344.464355
-7252.263989	3800.962333	1598.449219	1289.690674
-7252.263989	3800.962333	1597.408203	1329.160034
-7252.263989	3800.962333	1596.368164	1113.668823
-7252.263989	3800.962333	1595.327148	1265.754517
-7252.263989	3800.962333	1594.287109	1289.229248
-7252.263989	3800.962333	1593.246094	1110.688843
-7252.263989	3800.962333	1592.204102	1120.460815
-7252.263989	3800.962333	1591.163086	1323.042358
-7252.263989	3800.962333	1590.121094	1342.016113
-7252.263989	3800.962333	1589.079102	1695.942749
-7252.263989	3800.962333	1588.037109	1405.276245
-7252.263989	3800.962333	1586.995117	1442.677856
-7252.263989	3800.962333	1585.953125	1177.470459
-7252.263989	3800.962333	1584.910156	1499.203003
-7252.263989	3800.962333	1583.867188	1545.840332
-7252.263989	3800.962333	1582.824219	1379.406616
-7252.263989	3800.962333	1581.781250	1405.514038
-7252.263989	3800.962333	1580.737305	1644.655029
-7252.263989	3800.962333	1579.693359	1341.022583
-7252.263989	3800.962333	1578.649414	1252.767944
-7252.263989	3800.962333	1577.605469	1267.602905
-7252.263989	3800.962333	1576.561523	1110.831177
-7252.263989	3800.962333	1575.516602	1182.978271
-7252.263989	3800.962333	1574.472656	1211.686768
-7252.263989	3800.962333	1573.427734	979.673401
-7252.263989	3800.962333	1572.381836	1129.694946
-7252.263989	3800.962333	1571.336914	1144.821289
-7252.263989	3800.962333	1570.291016	947.392456
-7252.263989	3800.962333	1569.246094	882.657776
-7252.263989	3800.962333	1568.200195	1041.930298
-7252.263989	3800.962333	1567.153320	721.421692
-7252.263989	3800.962333	1566.107422	869.351746
-7252.263989	3800.962333	1565.060547	953.326721
-7252.263989	3800.962333	1564.013672	735.937134
-7252.263989	3800.962333	1562.966797	881.656494
-7252.263989	3800.962333	1561.919922	890.434814
-7252.263989	3800.962333	1560.872070	716.710510
-7252.263989	3800.962333	1559.825195	652.630310
-7252.263989	3800.962333	1558.777344	435.801086
-7252.263989	3800.962333	1557.729492	748.207642
-7252.263989	3800.962333	1556.680664	727.650024
-7252.263989	3800.962333	1555.632813	335.586975
-7252.263989	3800.962333	1554.583984	600.147217
-7252.263989	3800.962333	1553.535156	666.414917
-7252.263989	3800.962333	1552.486328	486.664154
-7252.263989	3800.962333	1551.436523	436.880920
-7252.263989	3800.962333	1550.387695	482.843475
-7252.263989	3800.962333	1549.337891	770.206604
-7252.263989	3800.962333	1548.288086	650.026794
-7252.263989	3800.962333	1547.238281	454.853455
-7252.263989	3800.962333	1546.187500	576.129822
-7252.263989	3800.962333	1545.136719	463.085999
-7252.263989	3800.962333	1544.086914	784.639221
-7252.263989	3800.962333	1543.035156	551.198364
-7252.263989	3800.962333	1541.984375	377.047150
-7252.263989	3800.962333	1540.933594	419.009827
-7252.263989	3800.962333	1539.881836	222.363922
-7252.263989	3800.962333	1538.830078	612.171082
-7252.263989	3800.962333	1537.778320	615.652588
-7252.263989	3800.962333	1536.725586	230.760010
-7252.263989	3800.962333	1535.673828	438.871216
-7252.263989	3800.962333	1534.621094	433.523682
-7252.263989	3800.962333	1533.568359	793.766907
-7252.263989	3800.962333	1532.515625	634.159973
-7252.263989	3800.962333	1531.461914	685.738892
-7252.263989	3800.962333	1530.409180	551.331787
-7252.263989	3800.962333	1529.355469	630.287415
-7252.263989	3800.962333	1528.301758	657.125610
-7252.263989	3800.962333	1527.247070	872.237976
-7252.263989	3800.962333	1526.193359	568.182556
-7252.263989	3800.962333	1525.138672	221.255997
-7252.263989	3800.962333	1524.083984	262.071411
-7252.263989	3800.962333	1523.029297	205.527710
-7252.263989	3800.962333	1521.974609	92.453461
-7252.263989	3800.962333	1520.918945	310.176331
-7252.263989	3800.962333	1519.863281	-8.770983
-7252.263989	3800.962333	1518.807617	163.774094
-7252.263989	3800.962333	1517.751953	302.384216
-7252.263989	3800.962333	1516.696289	203.401550
-7252.263989	3800.962333	1515.639648	-44.795055
-7252.263989	3800.962333	1514.583008	107.600098
-7252.263989	3800.962333	1513.526367	22.540508
-7252.263989	3800.962333	1512.469727	-125.715652
-7252.263989	3800.962333	1511.412109	44.949005
-7252.263989	3800.962333	1510.355469	-89.513611
-7252.263989	3800.962333	1509.297852	15.716912
-7252.263989	3800.962333	1508.240234	-190.817917
-7252.263989	3800.962333	1507.181641	-153.207458
-7252.263989	3800.962333	1506.124023	51.620579
-7252.263989	3800.962333	1505.065430	-229.051788
-7252.263989	3800.962333	1504.006836	-55.722519
-7252.263989	3800.962333	1502.948242	-78.752655
-7252.263989	3800.962333	1501.888672	-99.428421
-7252.263989	3800.962333	1500.830078	1.841091
-7252.263989	3800.962333	1499.770508	42.250813
-7252.263989	3800.962333	1498.710938	391.733978
-7252.263989	3800.962333	1497.650391	278.891357
-7252.263989	3800.962333	1496.590820	53.457680
-7252.263989	3800.962333	1495.530273	175.341431
-7252.263989	3800.962333	1494.469727	-108.393684
-7252.263989	3800.962333	1493.409180	67.738838
-7252.263989	3800.962333	1492.348633	255.157150
-7252.263989	3800.962333	1491.287109	359.257477
-7252.263989	3800.962333	1490.225586	51.314037
-7252.263989	3800.962333	1489.164063	290.690277
-7252.263989	3800.962333	1488.102539	102.374641
-7252.263989	3800.962333	1487.041016	186.546936
-7252.263989	3800.962333	1485.978516	104.269798
-7252.263989	3800.962333	1484.916016	393.316956
-7252.263989	3800.962333	1483.853516	142.532318
-7252.263989	3800.962333	1482.791016	184.285080
-7252.263989	3800.962333	1481.727539	158.677261
-7252.263989	3800.962333	1480.664063	97.204872
-7252.263989	3800.962333	1479.600586	213.383621
-7252.263989	3800.962333	1478.537109	453.211609
-7252.263989	3800.962333	1477.473633	268.403778
-7252.263989	3800.962333	1476.409180	196.193329
-7252.263989	3800.962333	1475.344727	103.837563
-7252.263989	3800.962333	1474.280273	130.635300
-7252.263989	3800.962333	1473.215820	65.563133
-7252.263989	3800.962333	1472.151367	117.142563
-7252.263989	3800.962333	1471.085938	272.089691
-7252.263989	3800.962333	1470.020508	234.325302
-7252.263989	3800.962333	1468.955078	400.556427
-7252.263989	3800.962333	1467.888672	376.058014
-7252.263989	3800.962333	1466.823242	179.965729
-7252.263989	3800.962333	1465.756836	397.788544
-7252.263989	3800.962333	1464.690430	490.185028
-7252.263989	3800.962333	1463.624023	616.121948
-7252.263989	3800.962333	1462.556641	458.261292
-7252.263989	3800.962333	1461.490234	781.163696
-7252.263989	3800.962333	1460.422852	746.756836
-7252.263989	3800.962333	1459.355469	857.234009
-7252.263989	3800.962333	1458.287109	858.411926
-7252.263989	3800.962333	1457.219727	763.619812
-7252.263989	3800.962333	1456.151367	954.309631
-7252.263989	3800.962333	1455.083008	891.019958
-7252.263989	3800.962333	1454.014648	852.692017
-7252.263989	3800.962333	1452.945313	939.242493
-7252.263989	3800.962333	1451.876953	1035.804443
-7252.263989	3800.962333	1450.807617	984.315063
-7252.263989	3800.962333	1449.738281	1081.343628
-7252.263989	3800.962333	1448.668945	1085.216187
-7252.263989	3800.962333	1447.598633	894.994202
-7252.263989	3800.962333	1446.528320	1081.072998
-7252.263989	3800.962333	1445.458008	948.227844
-7252.263989	3800.962333	1444.387695	1028.749390
-7252.263989	3800.962333	1443.317383	1114.914795
-7252.263989	3800.962333	1442.246094	1101.163208
-7252.263989	3800.962333	1441.174805	926.129333
-7252.263989	3800.962333	1440.103516	1101.955688
-7252.263989	3800.962333	1439.032227	892.491577
-7252.263989	3800.962333	1437.960938	567.807007
-7252.263989	3800.962333	1436.888672	943.648071
-7252.263989	3800.962333	1435.816406	654.522278
-7252.263989	3800.962333	1434.744141	529.487976
-7252.263989	3800.962333	1433.670898	631.748352
-7252.263989	3800.962333	1432.598633	607.595337
-7252.263989	3800.962333	1431.525391	779.131226
-7252.263989	3800.962333	1430.452148	285.403992
-7252.263989	3800.962333	1429.378906	319.120392
-7252.263989	3800.962333	1428.304688	459.898163
-7252.263989	3800.962333	1427.231445	400.959900
-7252.263989	3800.962333	1426.157227	449.762238
-7252.263989	3800.962333	1425.083008	106.733597
-7252.263989	3800.962333	1424.007813	452.747925
-7252.263989	3800.962333	1422.933594	102.112984
-7252.263989	3800.962333	1421.858398	105.844681
-7252.263989	3800.962333	1420.783203	374.300751
-7252.263989	3800.962333	1419.708008	230.664444
-7252.263989	3800.962333	1418.631836	358.060028
-7252.263989	3800.962333	1417.555664	344.505188
-7252.263989	3800.962333	1416.479492	394.466309
-7252.263989	3800.962333	1415.403320	352.577759
-7252.263989	3800.962333	1414.327148	307.745392
-7252.263989	3800.962333	1413.250000	249.486420
-7252.263989	3800.962333	1412.173828	89.985878
-7252.263989	3800.962333	1411.096680	236.870575
-7252.263989	3800.962333	1410.018555	190.966476
-7252.263989	3800.962333	1408.941406	572.192444
-7252.263989	3800.962333	1407.863281	296.199219
-7252.263989	3800.962333	1406.785156	347.657867
-7252.263989	3800.962333	1405.707031	537.964355
-7252.263989	3800.962333	1404.628906	350.198364
-7252.263989	3800.962333	1403.549805	427.278198
-7252.263989	3800.962333	1402.470703	220.700729
-7252.263989	3800.962333	1401.391602	395.049469
-7252.263989	3800.962333	1400.312500	506.767303
-7252.263989	3800.962333	1399.233398	660.355652
-7252.263989	3800.962333	1398.153320	457.672699
-7252.263989	3800.962333	1397.073242	808.527405
-7252.263989	3800.962333	1395.993164	532.554016
-7252.263989	3800.962333	1394.913086	561.343811
-7252.263989	3800.962333	1393.832031	520.979797
-7252.263989	3800.962333	1392.750977	524.387817
-7252.263989	3800.962333	1391.669922	330.256836
-7252.263989	3800.962333	1390.588867	354.832397
-7252.263989	3800.962333	1389.506836	508.213379
-7252.263989	3800.962333	1388.425781	362.198486
-7252.263989	3800.962333	1387.343750	401.095490
-7252.263989	3800.962333	1386.261719	415.081757
-7252.263989	3800.962333	1385.178711	435.736877
-7252.263989	3800.962333	1384.096680	458.732056
-7252.263989	3800.962333	1383.013672	484.375610
-7252.263989	3800.962333	1381.930664	468.237122
-7252.263989	3800.962333	1380.846680	506.154297
-7252.263989	3800.962333	1379.763672	474.422760
-7252.263989	3800.962333	1378.679688	438.034912
-7252.263989	3800.962333	1377.595703	436.673431
-7252.263989	3800.962333	1376.511719	699.906006
-7252.263989	3800.962333	1375.427734	675.310242
-7252.263989	3800.962333	1374.342773	731.011230
-7252.263989	3800.962333	1373.257813	689.335938
-7252.263989	3800.962333	1372.172852	553.830566
-7252.263989	3800.962333	1371.087891	833.982788
-7252.263989	3800.962333	1370.001953	467.402435
-7252.263989	3800.962333	1368.916992	553.725525
-7252.263989	3800.962333	1367.831055	863.615662
-7252.263989	3800.962333	1366.744141	854.300964
-7252.263989	3800.962333	1365.658203	834.309631
-7252.263989	3800.962333	1364.571289	682.057617
-7252.263989	3800.962333	1363.484375	744.884888
-7252.263989	3800.962333	1362.397461	694.081787
-7252.263989	3800.962333	1361.310547	636.868347
-7252.263989	3800.962333	1360.222656	604.013123
-7252.263989	3800.962333	1359.135742	457.283905
-7252.263989	3800.962333	1358.047852	483.116760
-7252.263989	3800.962333	1356.958984	250.538589
-7252.263989	3800.962333	1355.871094	113.812897
-7252.263989	3800.962333	1354.782227	376.083160
-7252.263989	3800.962333	1353.693359	436.811859
-7252.263989	3800.962333	1352.604492	762.117432
-7252.263989	3800.962333	1351.515625	453.251251
-7252.263989	3800.962333	1350.425781	448.636475
-7252.263989	3800.962333	1349.335938	395.530334
-7252.263989	3800.962333	1348.246094	496.289551
-7252.263989	3800.962333	1347.156250	535.513062
-7252.263989	3800.962333	1346.066406	601.983459
-7252.263989	3800.962333	1344.975586	363.065521
-7252.263989	3800.962333	1343.884766	498.344391
-7252.263989	3800.962333	1342.793945	457.741241
-7252.263989	3800.962333	1341.702148	461.427704
-7252.263989	3800.962333	1340.611328	480.081909
-7252.263989	3800.962333	1339.519531	417.905334
-7252.263989	3800.962333	1338.427734	647.818726
-7252.263989	3800.962333	1337.334961	501.116974
-7252.263989	3800.962333	1336.243164	543.290283
-7252.263989	3800.962333	1335.150391	383.317902
-7252.263989	3800.962333	1334.057617	529.981628
-7252.263989	3800.962333	1332.964844	593.599182
-7252.263989	3800.962333	1331.871094	419.373871
-7252.263989	3800.962333	1330.778320	664.906799
-7252.263989	3800.962333	1329.684570	495.415833
-7252.263989	3800.962333	1328.590820	467.743225
-7252.263989	3800.962333	1327.496094	361.994751
-7252.263989	3800.962333	1326.402344	594.552490
-7252.263989	3800.962333	1325.307617	460.484222
-7252.263989	3800.962333	1324.212891	674.382019
-7252.263989	3800.962333	1323.117188	444.090118
-7252.263989	3800.962333	1322.022461	873.035156
-7252.263989	3800.962333	1320.926758	586.580200
-7252.263989	3800.962333	1319.831055	704.533936
-7252.263989	3800.962333	1318.735352	670.442505
-7252.263989	3800.962333	1317.638672	670.279297
-7252.263989	3800.962333	1316.542969	802.562378
-7252.263989	3800.962333	1315.446289	734.690308
-7252.263989	3800.962333	1314.349609	774.194275
-7252.263989	3800.962333	1313.251953	835.325012
-7252.263989	3800.962333	1312.155273	964.674683
-7252.263989	3800.962333	1311.057617	831.360718
-7252.263989	3800.962333	1309.959961	870.685791
-7252.263989	3800.962333	1308.862305	1045.598267
-7252.263989	3800.962333	1307.763672	1011.978149
-7252.263989	3800.962333	1306.665039	1000.803589
-7252.263989	3800.962333	1305.566406	941.401978
-7252.263989	3800.962333	1304.467773	699.321594
-7252.263989	3800.962333	1303.369141	773.919067
-7252.263989	3800.962333	1302.269531	905.293152
-7252.263989	3800.962333	1301.169922	836.828247
-7252.263989	3800.962333	1300.070313	660.066589
-7252.263989	3800.962333	1298.970703	816.823914
-7252.263989	3800.962333	1297.870117	809.564392
-7252.263989	3800.962333	1296.769531	849.636963
-7252.263989	3800.962333	1295.668945	922.630859
-7252.263989	3800.962333	1294.568359	705.492737
-7252.263989	3800.962333	1293.466797	646.151489
-7252.263989	3800.962333	1292.366211	408.274597
-7252.263989	3800.962333	1291.264648	501.660156
-7252.263989	3800.962333	1290.162109	461.737274
-7252.263989	3800.962333	1289.060547	327.124329
-7252.263989	3800.962333	1287.958008	343.215363
-7252.263989	3800.962333	1286.855469	502.351410
-7252.263989	3800.962333	1285.752930	227.670532
-7252.263989	3800.962333	1284.650391	225.008026
-7252.263989	3800.962333	1283.546875	223.943451
-7252.263989	3800.962333	1282.444336	395.440735
-7252.263989	3800.962333	1281.339844	162.734100
-7252.263989	3800.962333	1280.236328	273.214996
-7252.263989	3800.962333	1279.132813	323.273590
-7252.263989	3800.962333	1278.028320	126.249298
-7252.263989	3800.962333	1276.923828	131.934280
-7252.263989	3800.962333	1275.819336	143.495865
-7252.263989	3800.962333	1274.713867	97.726662
-7252.263989	3800.962333	1273.608398	238.342606
-7252.263989	3800.962333	1272.503906	71.645531
-7252.263989	3800.962333	1271.397461	140.756760
-7252.263989	3800.962333	1270.291992	16.598677
-7252.263989	3800.962333	1269.185547	-26.986956
-7252.263989	3800.962333	1268.080078	160.465454
-7252.263989	3800.962333	1266.972656	84.229683
-7252.263989	3800.962333	1265.866211	93.786606
-7252.263989	3800.962333	1264.759766	-131.016388
-7252.263989	3800.962333	1263.652344	-101.820198
-7252.263989	3800.962333	1262.544922	-166.707748
-7252.263989	3800.962333	1261.436523	-321.086517
-7252.263989	3800.962333	1260.329102	-247.212662
-7252.263989	3800.962333	1259.220703	-51.546013
-7252.263989	3800.962333	1258.112305	-149.646103
-7252.263989	3800.962333	1257.003906	-90.860161
-7252.263989	3800.962333	1255.895508	-211.340149
-7252.263989	3800.962333	1254.786133	-64.584282
-7252.263989	3800.962333	1253.676758	-95.059326
-7252.263989	3800.962333	1252.567383	-4.071490
-7252.263989	3800.962333	1251.458008	-158.818604
-7252.263989	3800.962333	1250.347656	-53.341846
-7252.263989	3800.962333	1249.237305	-38.170464
-7252.263989	3800.962333	1248.126953	-77.373352
-7252.263989	3800.962333	1247.016602	-112.012573
-7252.263989	3800.962333	1245.905273	-99.550217
-7252.263989	3800.962333	1244.793945	18.047016
-7252.263989	3800.962333	1243.682617	-104.698952
-7252.263989	3800.962333	1242.571289	-21.903866
-7252.263989	3800.962333	1241.459961	52.469837
-7252.263989	3800.962333	1240.347656	-33.562378
-7252.263989	3800.962333	1239.235352	-129.945709
-7252.263989	3800.962333	1238.123047	-141.912125
-7252.263989	3800.962333	1237.009766	-41.452969
-7252.263989	3800.962333	1235.897461	-57.088955
-7252.263989	3800.962333	1234.784180	-4.783784
-7252.263989	3800.962333	1233.670898	-95.941589
-7252.263989	3800.962333	1232.556641	-136.872131
-7252.263989	3800.962333	1231.443359	-90.678032
-7252.263989	3800.962333	1230.329102	-81.867989
-7252.263989	3800.962333	1229.214844	-70.848999
-7252.263989	3800.962333	1228.099609	-196.391785
-7252.263989	3800.962333	1226.985352	77.928452
-7252.263989	3800.962333	1225.870117	31.223103
-7252.263989	3800.962333	1224.754883	-48.625740
-7252.263989	3800.962333	1223.639648	-55.693710
-7252.263989	3800.962333	1222.523438	132.670334
-7252.263989	3800.962333	1221.408203	20.474304
-7252.263989	3800.962333	1220.291992	65.913506
-7252.263989	3800.962333	1219.174805	-37.499840
-7252.263989	3800.962333	1218.058594	69.219826
-7252.263989	3800.962333	1216.941406	-26.781103
-7252.263989	3800.962333	1215.824219	-25.711214
-7252.263989	3800.962333	1214.707031	69.549202
-7252.263989	3800.962333	1213.589844	102.937248
-7252.263989	3800.962333	1212.471680	-202.818863
-7252.263989	3800.962333	1211.353516	-66.457932
-7252.263989	3800.962333	1210.235352	-20.236195
-7252.263989	3800.962333	1209.117188	124.263924
-7252.263989	3800.962333	1207.998047	28.051861
-7252.263989	3800.962333	1206.878906	-86.477318
-7252.263989	3800.962333	1205.759766	-48.011486
-7252.263989	3800.962333	1204.640625	-74.303925
-7252.263989	3800.962333	1203.520508	-54.218311
-7252.263989	3800.962333	1202.401367	-202.340881
-7252.263989	3800.962333	1201.281250	35.757626
-7252.263989	3800.962333	1200.160156	-13.536468
-7252.263989	3800.962333	1199.040039	14.275677
-7252.263989	3800.962333	1197.918945	-32.907043
-7252.263989	3800.962333	1196.797852	28.056728
-7252.263989	3800.962333	1195.676758	10.232103
-7252.263989	3800.962333	1194.555664	73.241814
-7252.263989	3800.962333	1193.433594	-73.939064
-7252.263989	3800.962333	1192.311523	-25.909313
-7252.263989	3800.962333	1191.189453	36.586628
-7252.263989	3800.962333	1190.066406	179.942734
-7252.263989	3800.962333	1188.944336	144.701218
-7252.263989	3800.962333	1187.821289	5.719635
-7252.263989	3800.962333	1186.698242	119.205978
-7252.263989	3800.962333	1185.574219	171.977020
-7252.263989	3800.962333	1184.451172	94.633728
-7252.263989	3800.962333	1183.327148	236.375336
-7252.263989	3800.962333	1182.203125	146.606216
-7252.263989	3800.962333	1181.078125	-115.260246
-7252.263989	3800.962333	1179.954102	130.009933
-7252.263989	3800.962333	1178.829102	48.707607
-7252.263989	3800.962333	1177.704102	-46.202179
-7252.263989	3800.962333	1176.579102	26.512764
-7252.263989	3800.962333	1175.453125	25.047943
-7252.263989	3800.962333	1174.327148	80.061836
-7252.263989	3800.962333	1173.201172	222.471222
-7252.263989	3800.962333	1172.075195	319.581543
-7252.263989	3800.962333	1170.949219	225.654327
-7252.263989	3800.962333	1169.822266	233.266800
-7252.263989	3800.962333	1168.695313	167.347122
-7252.263989	3800.962333	1167.568359	97.071869
-7252.263989	3800.962333	1166.440430	187.499680
-7252.263989	3800.962333	1165.313477	87.124969
-7252.263989	3800.962333	1164.185547	132.303497
-7252.263989	3800.962333	1163.057617	198.174500
-7252.263989	3800.962333	1161.928711	45.028938
-7252.263989	3800.962333	1160.800781	111.920082
-7252.263989	3800.962333	1159.671875	30.824564
-7252.263989	3800.962333	1158.541992	82.619110
-7252.263989	3800.962333	1157.413086	44.721401
-7252.263989	3800.962333	1156.283203	-261.266083
-7252.263989	3800.962333	1155.154297	6.804914
-7252.263989	3800.962333	1154.023438	-40.826550
-7252.263989	3800.962333	1152.893555	-20.198624
-7252.263989	3800.962333	1151.763672	6.394595
-7252.263989	3800.962333	1150.632813	13.203834
-7252.263989	3800.962333	1149.501953	75.414597
-7252.263989	3800.962333	1148.370117	139.734589
-7252.263989	3800.962333	1147.239258	54.080074
-7252.263989	3800.962333	1146.107422	202.425156
-7252.263989	3800.962333	1144.975586	86.938843
-7252.263989	3800.962333	1143.843750	143.190414
-7252.263989	3800.962333	1142.710938	275.414764
-7252.263989	3800.962333	1141.578125	306.465637
-7252.263989	3800.962333	1140.445313	-0.413906
-7252.263989	3800.962333	1139.312500	261.995789
-7252.263989	3800.962333	1138.178711	-45.589012
-7252.263989	3800.962333	1137.045898	38.898895
-7252.263989	3800.962333	1135.912109	158.931198
-7252.263989	3800.962333	1134.777344	147.821243
-7252.263989	3800.962333	1133.643555	42.804344
-7252.263989	3800.962333	1132.508789	-43.736824
-7252.263989	3800.962333	1131.374023	31.668913
-7252.263989	3800.962333	1130.239258	249.860382
-7252.263989	3800.962333	1129.104492	295.901978
-7252.263989	3800.962333	1127.968750	122.322327
-7252.263989	3800.962333	1126.833008	124.278229
-7252.263989	3800.962333	1125.697266	339.610504
-7252.263989	3800.962333	1124.560547	207.336899
-7252.263989	3800.962333	1123.424805	308.215729
-7252.263989	3800.962333	1122.288086	-23.649078
-7252.263989	3800.962333	1121.151367	-35.316368
-7252.263989	3800.962333	1120.013672	277.749115
-7252.263989	3800.962333	1118.876953	200.255157
-7252.263989	3800.962333	1117.739258	250.616959
-7252.263989	3800.962333	1116.601563	298.079529
-7252.263989	3800.962333	1115.462891	36.614574
-7252.263989	3800.962333	1114.324219	15.440784
-7252.263989	3800.962333	1113.186523	238.896149
-7252.263989	3800.962333	1112.046875	275.420898
-7252.263989	3800.962333	1110.908203	61.376587
-7252.263989	3800.962333	1109.769531	245.780762
-7252.263989	3800.962333	1108.629883	218.761185
-7252.263989	3800.962333	1107.490234	70.670563
-7252.263989	3800.962333	1106.349609	70.995995
-7252.263989	3800.962333	1105.209961	150.176437
-7252.263989	3800.962333	1104.069336	209.341324
-7252.263989	3800.962333	1102.928711	268.276062
-7252.263989	3800.962333	1101.787109	145.586838
-7252.263989	3800.962333	1100.646484	145.575134
-7252.263989	3800.962333	1099.504883	170.807663
-7252.263989	3800.962333	1098.363281	359.443024
-7252.263989	3800.962333	1097.221680	197.455887
-7252.263989	3800.962333	1096.079102	354.360474
-7252.263989	3800.962333	1094.936523	379.659241
-7252.263989	3800.962333	1093.793945	240.698944
-7252.263989	3800.962333	1092.651367	206.597809
-7252.263989	3800.962333	1091.507813	350.239105
-7252.263989	3800.962333	1090.364258	254.711319
-7252.263989	3800.962333	1089.220703	201.461823
-7252.263989	3800.962333	1088.077148	210.557098
-7252.263989	3800.962333	1086.933594	372.708160
-7252.263989	3800.962333	1085.789063	157.041321
-7252.263989	3800.962333	1084.644531	329.106140
-7252.263989	3800.962333	1083.499023	248.256470
-7252.263989	3800.962333	1082.354492	231.071060
-7252.263989	3800.962333	1081.208984	124.335526
-7252.263989	3800.962333	1080.063477	283.046844
-7252.263989	3800.962333	1078.917969	265.314484
-7252.263989	3800.962333	1077.771484	127.830009
-7252.263989	3800.962333	1076.625977	188.730118
-7252.263989	3800.962333	1075.479492	61.639004
-7252.263989	3800.962333	1074.332031	344.322327
-7252.263989	3800.962333	1073.185547	240.606384
-7252.263989	3800.962333	1072.038086	339.104492
-7252.263989	3800.962333	1070.890625	191.636154
-7252.263989	3800.962333	1069.743164	285.518829
-7252.263989	3800.962333	1068.594727	260.816925
-7252.263989	3800.962333	1067.447266	84.658813
-7252.263989	3800.962333	1066.298828	257.788391
-7252.263989	3800.962333	1065.149414	216.149033
-7252.263989	3800.962333	1064.000977	378.439606
-7252.263989	3800.962333	1062.851563	481.623566
-7252.263989	3800.962333	1061.702148	359.169037
-7252.263989	3800.962333	1060.552734	259.585938
-7252.263989	3800.962333	1059.402344	134.517548
-7252.263989	3800.962333	1058.252930	111.342667
-7252.263989	3800.962333	1057.102539	-23.627825
-7252.263989	3800.962333	1055.951172	205.378586
-7252.263989	3800.962333	1054.800781	132.326752
-7252.263989	3800.962333	1053.649414	1.943445
-7252.263989	3800.962333	1052.498047	146.952866
-7252.263989	3800.962333	1051.346680	212.946945
-7252.263989	3800.962333	1050.194336	272.146912
-7252.263989	3800.962333	1049.042969	-3.480137
-7252.263989	3800.962333	1047.890625	147.568649
-7252.263989	3800.962333	1046.738281	187.328186
-7252.263989	3800.962333	1045.584961	213.129944
-7252.263989	3800.962333	1044.431641	-61.995049
-7252.263989	3800.962333	1043.278320	290.535400
-7252.263989	3800.962333	1042.125000	284.452850
-7252.263989	3800.962333	1040.971680	19.945915
-7252.263989	3800.962333	1039.817383	-51.104202
-7252.263989	3800.962333	1038.663086	61.693008
-7252.263989	3800.962333	1037.508789	-26.256056
-7252.263989	3800.962333	1036.353516	-53.863255
-7252.263989	3800.962333	1035.198242	-6.167673
-7252.263989	3800.962333	1034.042969	191.902115
-7252.263989	3800.962333	1032.887695	370.237823
-7252.263989	3800.962333	1031.732422	116.885529
-7252.263989	3800.962333	1030.576172	346.327759
-7252.263989	3800.962333	1029.419922	224.977722
-7252.263989	3800.962333	1028.263672	265.113831
-7252.263989	3800.962333	1027.106445	251.384644
-7252.263989	3800.962333	1025.949219	86.360588
-7252.263989	3800.962333	1024.792969	-64.786209
-7252.263989	3800.962333	1023.634766	26.273170
-7252.263989	3800.962333	1022.477539	-2.620981
-7252.263989	3800.962333	1021.319336	7.714791
-7252.263989	3800.962333	1020.161133	-163.907730
-7252.263989	3800.962333	1019.002930	-145.728668
-7252.263989	3800.962333	1017.843750	42.335896
-7252.263989	3800.962333	1016.684570	22.067499
-7252.263989	3800.962333	1015.525391	-14.612818
-7252.263989	3800.962333	1014.366211	66.503075
-7252.263989	3800.962333	1013.207031	-16.246796
-7252.263989	3800.962333	1012.046875	-62.855820
-7252.263989	3800.962333	1010.886719	38.249676
-7252.263989	3800.962333	1009.726563	-62.092304
-7252.263989	3800.962333	1008.565430	237.964645
-7252.263989	3800.962333	1007.404297	39.037220
-7252.263989	3800.962333	1006.243164	39.391155
-7252.263989	3800.962333	1005.082031	175.166229
-7252.263989	3800.962333	1003.920898	201.770737
-7252.263989	3800.962333	1002.758789	175.778534
-7252.263989	3800.962333	1001.596680	190.784927
-7252.263989	3800.962333	1000.433594	-42.121674
-7252.263989	3800.962333	999.271484	-176.179337
-7252.263989	3800.962333	998.108398	-92.434952
-7252.263989	3800.962333	996.945313	59.955868
-7252.263989	3800.962333	995.782227	-15.804613
-7252.263989	3800.962333	994.618164	132.976425
-7252.263989	3800.962333	993.454102	263.967651
-7252.263989	3800.962333	992.290039	-92.988068
-7252.263989	3800.962333	991.125977	-72.801758
-7252.263989	3800.962333	989.960938	-146.178146
-7252.263989	3800.962333	988.796875	73.102058
-7252.263989	3800.962333	987.630859	-240.203506
-7252.263989	3800.962333	986.465820	-94.095467
-7252.263989	3800.962333	985.300781	68.331779
-7252.263989	3800.962333	984.134766	-131.466446
-7252.263989	3800.962333	982.968750	-21.124054
-7252.263989	3800.962333	981.801758	-217.261917
-7252.263989	3800.962333	980.635742	-94.391960
-7252.263989	3800.962333	979.468750	66.473434
-7252.263989	3800.962333	978.301758	128.031494
-7252.263989	3800.962333	977.133789	68.736420
-7252.263989	3800.962333	975.966797	148.776657
-7252.263989	3800.962333	974.798828	-33.398438
-7252.263989	3800.962333	973.630859	-163.093536
-7252.263989	3800.962333	972.461914	50.340820
-7252.263989	3800.962333	971.293945	-60.871655
-7252.263989	3800.962333	970.125000	-210.968262
-7252.263989	3800.962333	968.956055	-52.097385
-7252.263989	3800.962333	967.786133	-46.337173
-7252.263989	3800.962333	966.617188	-3.276282
-7252.263989	3800.962333	965.447266	-58.937328
-7252.263989	3800.962333	964.276367	-177.479507
-7252.263989	3800.962333	963.106445	-310.995270
-7252.263989	3800.962333	961.935547	-73.365746
-7252.263989	3800.962333	960.764648	0.766656
-7252.263989	3800.962333	959.593750	-180.679077
-7252.263989	3800.962333	958.422852	-119.262489
-7252.263989	3800.962333	957.250977	-124.885178
-7252.263989	3800.962333	956.079102	101.813454
-7252.263989	3800.962333	954.907227	289.909607
-7252.263989	3800.962333	953.734375	82.963509
-7252.263989	3800.962333	952.562500	67.559792
-7252.263989	3800.962333	951.389648	213.651917
-7252.263989	3800.962333	950.215820	118.441025
-7252.263989	3800.962333	949.042969	-107.698166
-7252.263989	3800.962333	947.869141	-28.608181
-7252.263989	3800.962333	946.695313	-102.573814
-7252.263989	3800.962333	945.521484	118.762344
-7252.263989	3800.962333	944.346680	-212.105042
-7252.263989	3800.962333	943.172852	-67.170197
-7252.263989	3800.962333	941.998047	116.039558
-7252.263989	3800.962333	940.822266	-71.776627
-7252.263989	3800.962333	939.647461	-55.244717
-7252.263989	3800.962333	938.471680	-114.679245
-7252.263989	3800.962333	937.295898	84.894875
-7252.263989	3800.962333	936.119141	-41.282726
-7252.263989	3800.962333	934.943359	106.056641
-7252.263989	3800.962333	933.766602	-115.205429
-7252.263989	3800.962333	932.589844	193.683578
-7252.263989	3800.962333	931.413086	229.111298
-7252.263989	3800.962333	930.235352	98.231316
-7252.263989	3800.962333	929.057617	24.354774
-7252.263989	3800.962333	927.879883	71.639824
-7252.263989	3800.962333	926.702148	92.778793
-7252.263989	3800.962333	925.523438	132.888077
-7252.263989	3800.962333	924.344727	372.462463
-7252.263989	3800.962333	923.166016	63.460861
-7252.263989	3800.962333	921.987305	3.812903
-7252.263989	3800.962333	920.807617	131.685669
-7252.263989	3800.962333	919.627930	136.585739
-7252.263989	3800.962333	919.497070	165.109558
-7252.263989	3800.962333	918.331055	-198.317963
-7252.263989	3800.962333	917.165039	133.400345
-7252.263989	3800.962333	915.999023	-172.997330
-7252.263989	3800.962333	914.833008	-261.149719
-7252.263989	3800.962333	913.666016	89.283928
-7252.263989	3800.962333	912.499023	148.025146
-7252.263989	3800.962333	911.332031	-248.257217
-7252.263989	3800.962333	910.165039	85.310776
-7252.263989	3800.962333	908.997070	11.307110
-7252.263989	3800.962333	907.830078	171.761032
-7252.263989	3800.962333	906.661133	-41.967342
-7252.263989	3800.962333	905.493164	-210.657288
-7252.263989	3800.962333	904.325195	-66.886086
-7252.263989	3800.962333	903.156250	36.581364
-7252.263989	3800.962333	901.987305	173.104416
-7252.263989	3800.962333	900.818359	-99.652985
-7252.263989	3800.962333	899.648438	22.610620
-7252.263989	3800.962333	898.478516	-224.039307
-7252.263989	3800.962333	897.308594	30.530882
-7252.263989	3800.962333	896.138672	-81.352753
-7252.263989	3800.962333	894.968750	-11.269437
-7252.263989	3800.962333	893.797852	339.894653
-7252.263989	3800.962333	892.626953	190.157242
-7252.263989	3800.962333	891.456055	99.493744
-7252.263989	3800.962333	890.284180	-40.734009
-7252.263989	3800.962333	889.113281	83.444252
-7252.263989	3800.962333	887.941406	264.191711
-7252.263989	3800.962333	886.768555	93.271858
-7252.263989	3800.962333	885.596680	28.551544
-7252.263989	3800.962333	884.423828	110.067856
-7252.263989	3800.962333	883.250977	94.843529
-7252.263989	3800.962333	882.078125	-83.074730
-7252.263989	3800.962333	880.905273	-37.019104
-7252.263989	3800.962333	879.731445	270.584900
-7252.263989	3800.962333	878.557617	64.390953
-7252.263989	3800.962333	877.383789	136.227005
-7252.263989	3800.962333	876.209961	189.166122
-7252.263989	3800.962333	875.035156	44.263203
-7252.263989	3800.962333	873.860352	-6.438388
-7252.263989	3800.962333	872.685547	117.033836
-7252.263989	3800.962333	871.510742	87.464867
-7252.263989	3800.962333	870.334961	48.471966
-7252.263989	3800.962333	869.159180	129.436493
-7252.263989	3800.962333	867.983398	153.896362
-7252.263989	3800.962333	866.807617	298.237152
-7252.263989	3800.962333	865.630859	-37.084171
-7252.263989	3800.962333	864.454102	-59.693939
-7252.263989	3800.962333	863.277344	35.172310
-7252.263989	3800.962333	862.100586	146.416733
-7252.263989	3800.962333	860.922852	104.908333
-7252.263989	3800.962333	859.745117	-68.126602
-7252.263989	3800.962333	858.567383	-36.844528
-7252.263989	3800.962333	857.389648	-184.015167
-7252.263989	3800.962333	856.210938	11.512639
-7252.263989	3800.962333	855.032227	54.405659
-7252.263989	3800.962333	853.853516	341.239868
-7252.263989	3800.962333	852.674805	-160.186081
-7252.263989	3800.962333	851.495117	-61.090305
-7252.263989	3800.962333	850.315430	33.243881
-7252.263989	3800.962333	849.135742	165.015503
-7252.263989	3800.962333	847.956055	97.490967
-7252.263989	3800.962333	846.775391	165.869049
-7252.263989	3800.962333	845.595703	-142.987701
-7252.263989	3800.962333	844.415039	-107.442261
-7252.263989	3800.962333	843.233398	157.548019
-7252.263989	3800.962333	842.052734	190.610535
-7252.263989	3800.962333	840.871094	-171.958710
-7252.263989	3800.962333	839.689453	45.978088
-7252.263989	3800.962333	838.506836	-42.719345
-7252.263989	3800.962333	837.325195	-96.325760
-7252.263989	3800.962333	836.142578	-40.017063
-7252.263989	3800.962333	834.959961	133.153275
-7252.263989	3800.962333	833.777344	91.134262
-7252.263989	3800.962333	832.593750	105.197601
-7252.263989	3800.962333	831.410156	280.467621
-7252.263989	3800.962333	830.226563	53.765427
-7252.263989	3800.962333	829.042969	-2.353536
-7252.263989	3800.962333	827.858398	238.120605
-7252.263989	3800.962333	826.673828	-105.284393
-7252.263989	3800.962333	825.489258	36.991833
-7252.263989	3800.962333	824.304688	88.147331
-7252.263989	3800.962333	823.120117	73.906502
-7252.263989	3800.962333	821.934570	150.627716
-7252.263989	3800.962333	820.749023	29.010744
-7252.263989	3800.962333	819.562500	-6.302903
-7252.263989	3800.962333	818.376953	44.628769
-7252.263989	3800.962333	817.190430	81.517616
-7252.263989	3800.962333	816.003906	169.628006
-7252.263989	3800.962333	814.817383	-101.180847
-7252.263989	3800.962333	813.629883	10.154252
-7252.263989	3800.962333	812.442383	86.468102
-7252.263989	3800.962333	811.254883	223.258560
-7252.263989	3800.962333	810.067383	-77.755798
-7252.263989	3800.962333	808.878906	259.123871
-7252.263989	3800.962333	807.690430	30.296932
-7252.263989	3800.962333	806.501953	-112.383270
-7252.263989	3800.962333	805.313477	21.789152
-7252.263989	3800.962333	804.124023	11.665261
-7252.263989	3800.962333	802.934570	54.989292
-7252.263989	3800.962333	801.745117	-71.459625
-7252.263989	3800.962333	800.555664	-100.272476
-7252.263989	3800.962333	799.365234	42.857746
-7252.263989	3800.962333	798.175781	74.362419
-7252.263989	3800.962333	796.985352	219.639877
-7252.263989	3800.962333	795.793945	18.768942
-7252.263989	3800.962333	794.603516	119.797432
-7252.263989	3800.962333	793.412109	-104.266167
-7252.263989	3800.962333	792.220703	-35.829662
-7252.263989	3800.962333	791.028320	-27.795244
-7252.263989	3800.962333	789.836914	45.154705
-7252.263989	3800.962333	788.644531	76.281334
-7252.263989	3800.962333	787.452148	172.288315
-7252.263989	3800.962333	786.258789	277.488190
-7252.263989	3800.962333	785.066406	125.287743
-7252.263989	3800.962333	783.873047	14.826737
-7252.263989	3800.962333	782.679688	64.254341
-7252.263989	3800.962333	781.485352	210.921036
-7252.263989	3800.962333	780.291992	16.998528
-7252.263989	3800.962333	779.097656	-56.466412
-7252.263989	3800.962333	777.903320	110.842514
-7252.263989	3800.962333	776.708008	113.690704
-7252.263989	3800.962333	775.512695	77.150398
-7252.263989	3800.962333	774.318359	84.543968
-7252.263989	3800.962333	773.122070	281.585602
-7252.263989	3800.962333	771.926758	117.695702
-7252.263989	3800.962333	770.730469	87.948929
-7252.263989	3800.962333	769.534180	129.838608
-7252.263989	3800.962333	768.337891	79.210365
-7252.263989	3800.962333	767.141602	220.366898
-7252.263989	3800.962333	765.944336	248.208099
-7252.263989	3800.962333	764.747070	-17.372164
-7252.263989	3800.962333	763.549805	-70.412971
-7252.263989	3800.962333	762.351563	17.373163
-7252.263989	3800.962333	761.154297	-114.232445
-7252.263989	3800.962333	759.956055	125.769051
-7252.263989	3800.962333	758.757813	151.020752
-7252.263989	3800.962333	757.558594	-52.183109
-7252.263989	3800.962333	756.359375	60.658070
-7252.263989	3800.962333	755.160156	231.060898
-7252.263989	3800.962333	753.960938	25.527327
-7252.263989	3800.962333	752.761719	64.382576
-7252.263989	3800.962333	751.561523	133.137512
-7252.263989	3800.962333	750.361328	190.297821
-7252.263989	3800.962333	749.160156	219.744461
-7252.263989	3800.962333	747.959961	159.307434
-7252.263989	3800.962333	746.758789	34.374504
-7252.263989	3800.962333	745.557617	33.770889
-7252.263989	3800.962333	744.356445	-24.421322
-7252.263989	3800.962333	743.154297	14.020453
-7252.263989	3800.962333	741.952148	-58.038410
-7252.263989	3800.962333	740.750000	76.920723
-7252.263989	3800.962333	739.547852	96.784660
-7252.263989	3800.962333	738.344727	102.799309
-7252.263989	3800.962333	737.142578	-38.364792
-7252.263989	3800.962333	735.939453	-27.816519
-7252.263989	3800.962333	734.735352	-21.913290
-7252.263989	3800.962333	733.532227	335.458069
-7252.263989	3800.962333	732.328125	-318.044922
-7252.263989	3800.962333	731.124023	108.045044
-7252.263989	3800.962333	729.918945	21.896555
-7252.263989	3800.962333	728.714844	-64.259735
-7252.263989	3800.962333	727.509766	118.100647
-7252.263989	3800.962333	726.303711	-80.564240
-7252.263989	3800.962333	725.098633	-84.187553
-7252.263989	3800.962333	723.892578	77.288193
-7252.263989	3800.962333	722.686523	-6.714307
-7252.263989	3800.962333	721.480469	-31.115751
-7252.263989	3800.962333	720.274414	13.216887
-7252.263989	3800.962333	719.067383	-199.184784
-7252.263989	3800.962333	717.860352	-1.408639
-7252.263989	3800.962333	716.653320	-188.605804
-7252.263989	3800.962333	715.445313	20.452505
-7252.263989	3800.962333	714.238281	-242.317551
-7252.263989	3800.962333	713.030273	-51.734013
-7252.263989	3800.962333	711.821289	31.151525
-7252.263989	3800.962333	710.613281	-197.255310
-7252.263989	3800.962333	709.404297	-249.440704
-7252.263989	3800.962333	708.195313	-173.550797
-7252.263989	3800.962333	706.986328	41.769226
-7252.263989	3800.962333	705.776367	-37.992268
-7252.263989	3800.962333	704.566406	5.680816
-7252.263989	3800.962333	703.356445	-0.984630
-7252.263989	3800.962333	702.146484	-41.960926
-7252.263989	3800.962333	700.935547	-62.399418
-7252.263989	3800.962333	699.724609	-69.162766
-7252.263989	3800.962333	698.513672	42.782604
-7252.263989	3800.962333	697.302734	-46.268017
-7252.263989	3800.962333	696.090820	92.940186
-7252.263989	3800.962333	694.878906	-194.703323
-7252.263989	3800.962333	693.666992	-21.371984
-7252.263989	3800.962333	692.455078	176.944382
-7252.263989	3800.962333	691.242188	-26.262175
-7252.263989	3800.962333	690.029297	-42.440918
-7252.263989	3800.962333	688.816406	-1.654894
-7252.263989	3800.962333	687.602539	-170.614243
-7252.263989	3800.962333	686.389648	182.303802
-7252.263989	3800.962333	685.175781	159.119934
-7252.263989	3800.962333	683.960938	197.411652
-7252.263989	3800.962333	682.747070	208.327362
-7252.263989	3800.962333	681.532227	251.080917
-7252.263989	3800.962333	680.317383	284.678436
-7252.263989	3800.962333	679.102539	379.679993
-7252.263989	3800.962333	677.886719	406.345978
-7252.263989	3800.962333	676.670898	235.050812
-7252.263989	3800.962333	675.455078	359.476624
-7252.263989	3800.962333	674.239258	322.368134
-7252.263989	3800.962333	673.022461	342.081390
-7252.263989	3800.962333	671.805664	132.184250
-7252.263989	3800.962333	670.588867	351.855988
-7252.263989	3800.962333	669.372070	326.026886
-7252.263989	3800.962333	668.154297	98.008041
-7252.263989	3800.962333	666.936523	176.658432
-7252.263989	3800.962333	665.718750	114.470871
-7252.263989	3800.962333	664.500977	-124.786476
-7252.263989	3800.962333	663.282227	214.795135
-7252.263989	3800.962333	662.063477	288.715424
-7252.263989	3800.962333	660.844727	221.921295
-7252.263989	3800.962333	659.625000	293.492371
-7252.263989	3800.962333	658.405273	99.684296
-7252.263989	3800.962333	657.185547	252.829758
-7252.263989	3800.962333	655.965820	99.871834
-7252.263989	3800.962333	654.745117	259.708435
-7252.263989	3800.962333	653.525391	380.941254
-7252.263989	3800.962333	652.303711	221.195313
-7252.263989	3800.962333	651.083008	-38.152065
-7252.263989	3800.962333	649.861328	17.340786
-7252.263989	3800.962333	648.640625	90.907494
-7252.263989	3800.962333	647.417969	150.841934
-7252.263989	3800.962333	646.196289	34.226681
-7252.263989	3800.962333	644.973633	64.706451
-7252.263989	3800.962333	643.750977	140.399460
-7252.263989	3800.962333	642.528320	123.324997
-7252.263989	3800.962333	641.305664	-65.594284
-7252.263989	3800.962333	640.082031	-17.087446
-7252.263989	3800.962333	638.858398	40.428627
-7252.263989	3800.962333	637.634766	82.093384
-7252.263989	3800.962333	636.410156	-129.292923
-7252.263989	3800.962333	635.185547	79.510086
-7252.263989	3800.962333	633.960938	-237.936249
-7252.263989	3800.962333	632.736328	-90.170181
-7252.263989	3800.962333	631.510742	84.611465
-7252.263989	3800.962333	630.285156	38.154007
-7252.263989	3800.962333	629.059570	210.569580
-7252.263989	3800.962333	627.833984	-50.202507
-7252.263989	3800.962333	626.607422	70.277657
-7252.263989	3800.962333	625.380859	-79.873497
-7252.263989	3800.962333	624.154297	-78.920753
-7252.263989	3800.962333	622.927734	149.671875
-7252.263989	3800.962333	621.700195	-9.417375
-7252.263989	3800.962333	620.472656	-206.737106
-7252.263989	3800.962333	619.245117	-111.153656
-7252.263989	3800.962333	618.016602	-58.396980
-7252.263989	3800.962333	616.788086	28.113237
-7252.263989	3800.962333	615.559570	92.081955
-7252.263989	3800.962333	614.331055	-188.300507
-7252.263989	3800.962333	613.101563	109.701752
-7252.263989	3800.962333	611.872070	63.401455
-7252.263989	3800.962333	610.642578	-79.581390
-7252.263989	3800.962333	609.413086	90.063660
-7252.263989	3800.962333	608.182617	-16.876671
-7252.263989	3800.962333	606.952148	139.215973
-7252.263989	3800.962333	605.721680	-26.093065
-7252.263989	3800.962333	604.491211	80.533012
-7252.263989	3800.962333	603.259766	56.842896
-7252.263989	3800.962333	602.028320	26.442211
-7252.263989	3800.962333	600.796875	65.671677
-7252.263989	3800.962333	599.564453	-130.802979
-7252.263989	3800.962333	598.332031	-109.478729
-7252.263989	3800.962333	597.099609	-76.925972
-7252.263989	3800.962333	595.867188	-39.882130
-7252.263989	3800.962333	594.633789	-23.020290
-7252.263989	3800.962333	593.400391	45.429127
-7252.263989	3800.962333	592.166992	-108.078911
-7252.263989	3800.962333	590.933594	168.859756
-7252.263989	3800.962333	589.699219	-45.071419
-7252.263989	3800.962333	588.464844	-144.622498
-7252.263989	3800.962333	587.230469	-6.662742
-7252.263989	3800.962333	585.995117	84.231560
-7252.263989	3800.962333	584.760742	-8.486638
-7252.263989	3800.962333	583.525391	35.414040
-7252.263989	3800.962333	582.289063	88.274338
-7252.263989	3800.962333	581.053711	2.411301
-7252.263989	3800.962333	579.817383	84.400185
-7252.263989	3800.962333	578.581055	101.521973
-7252.263989	3800.962333	577.343750	13.564759
-7252.263989	3800.962333	576.107422	102.301430
-7252.263989	3800.962333	574.870117	146.327927
-7252.263989	3800.962333	573.631836	71.925354
-7252.263989	3800.962333	572.394531	153.992386
-7252.263989	3800.962333	571.156250	8.209090
-7252.263989	3800.962333	569.917969	231.026108
-7252.263989	3800.962333	568.679688	100.993973
-7252.263989	3800.962333	567.440430	209.918533
-7252.263989	3800.962333	566.202148	86.718597
-7252.263989	3800.962333	564.961914	202.371857
-7252.263989	3800.962333	563.722656	181.929337
-7252.263989	3800.962333	562.482422	319.898590
-7252.263989	3800.962333	561.243164	232.622940
-7252.263989	3800.962333	560.001953	132.047211
-7252.263989	3800.962333	558.761719	192.050095
-7252.263989	3800.962333	557.520508	162.927460
-7252.263989	3800.962333	556.279297	138.317932
-7252.263989	3800.962333	555.038086	271.925201
-7252.263989	3800.962333	553.795898	216.212601
-7252.263989	3800.962333	552.554688	211.784485
-7252.263989	3800.962333	551.311523	307.581482
-7252.263989	3800.962333	550.069336	207.523361
-7252.263989	3800.962333	548.826172	216.591965
-7252.263989	3800.962333	547.583984	234.605164
-7252.263989	3800.962333	546.339844	43.574268
-7252.263989	3800.962333	545.096680	88.399956
-7252.263989	3800.962333	543.852539	111.021309
-7252.263989	3800.962333	542.608398	255.941559
-7252.263989	3800.962333	541.364258	-5.846781
-7252.263989	3800.962333	540.119141	116.917671
-7252.263989	3800.962333	538.875000	235.239548
-7252.263989	3800.962333	537.628906	251.396484
-7252.263989	3800.962333	536.383789	198.763733
-7252.263989	3800.962333	535.137695	115.126465
-7252.263989	3800.962333	533.892578	75.968391
-7252.263989	3800.962333	532.645508	192.211075
-7252.263989	3800.962333	531.399414	-86.447594
-7252.263989	3800.962333	530.152344	-72.145073
-7252.263989	3800.962333	528.905273	117.396492
-7252.263989	3800.962333	527.658203	69.675201
-7252.263989	3800.962333	526.410156	-66.639236
-7252.263989	3800.962333	525.163086	-61.005333
-7252.263989	3800.962333	523.914063	13.366352
-7252.263989	3800.962333	522.666016	-58.446579
-7252.263989	3800.962333	521.416992	128.952988
-7252.263989	3800.962333	520.167969	274.253479
-7252.263989	3800.962333	518.918945	-23.219091
-7252.263989	3800.962333	517.669922	-4.003066
-7252.263989	3800.962333	516.419922	-2.445275
-7252.263989	3800.962333	515.169922	-131.367355
-7252.263989	3800.962333	513.919922	-54.473751
-7252.263989	3800.962333	512.668945	-6.309545
-7252.263989	3800.962333	511.417969	13.142250
-7252.263989	3800.962333	510.166992	-177.360062
-7252.263989	3800.962333	508.916016	-201.978119
-7252.263989	3800.962333	507.664063	-56.401546
-7252.263989	3800.962333	506.412109	-246.616638
-7252.263989	3800.962333	505.160156	-41.363293
-7252.263989	3800.962333	503.907227	-140.869263
-7252.263989	3800.962333	502.655273	-96.788612
-7252.263989	3800.962333	501.402344	-169.660156
-7252.263989	3800.962333	500.148438	-63.712158
-7252.263989	3800.962333	498.895508	-138.675278
-7252.263989	3800.962333	497.641602	-50.336269
-7252.263989	3800.962333	496.387695	71.086418
-7252.263989	3800.962333	495.132813	24.935268
-7252.263989	3800.962333	493.878906	-80.672218
-7252.263989	3800.962333	492.624023	18.764351
-7252.263989	3800.962333	491.368164	-14.006171
-7252.263989	3800.962333	490.113281	-15.884208
-7252.263989	3800.962333	488.857422	132.038834
-7252.263989	3800.962333	487.601563	-50.358452
-7252.263989	3800.962333	486.344727	-137.978912
-7252.263989	3800.962333	485.088867	-137.491989
-7252.263989	3800.962333	483.832031	-22.547726
-7252.263989	3800.962333	482.575195	116.576851
-7252.263989	3800.962333	481.317383	103.898651
-7252.263989	3800.962333	480.059570	-78.079277
-7252.263989	3800.962333	478.801758	-73.073624
-7252.263989	3800.962333	477.543945	4.490827
-7252.263989	3800.962333	476.285156	145.775314
-7252.263989	3800.962333	475.027344	71.688637
-7252.263989	3800.962333	473.767578	-55.070686
-7252.263989	3800.962333	472.508789	-17.043413
-7252.263989	3800.962333	471.249023	-14.153361
-7252.263989	3800.962333	469.989258	8.501237
-7252.263989	3800.962333	468.729492	15.788064
-7252.263989	3800.962333	467.469727	-3.257307
-7252.263989	3800.962333	466.208984	-37.649963
-7252.263989	3800.962333	464.948242	-23.774611
-7252.263989	3800.962333	463.686523	-58.152363
-7252.263989	3800.962333	462.425781	45.600277
-7252.263989	3800.962333	461.164063	68.195610
-7252.263989	3800.962333	459.901367	-16.615498
-7252.263989	3800.962333	458.639648	-191.239777
-7252.263989	3800.962333	457.376953	-21.888117
-7252.263989	3800.962333	456.114258	101.375511
-7252.263989	3800.962333	454.851563	274.920807
-7252.263989	3800.962333	453.587891	54.314705
-7252.263989	3800.962333	452.324219	194.903152
-7252.263989	3800.962333	451.060547	-108.812584
-7252.263989	3800.962333	449.796875	-47.086239
-7252.263989	3800.962333	448.532227	172.052917
-7252.263989	3800.962333	447.267578	-35.375587
-7252.263989	3800.962333	446.002930	50.199409
-7252.263989	3800.962333	444.737305	-113.503731
-7252.263989	3800.962333	443.471680	221.065567
-7252.263989	3800.962333	442.206055	-82.563843
-7252.263989	3800.962333	440.940430	-3.859242
-7252.263989	3800.962333	439.673828	199.223267
-7252.263989	3800.962333	438.407227	-115.344124
-7252.263989	3800.962333	437.140625	2.374299
-7252.263989	3800.962333	435.873047	10.826202
-7252.263989	3800.962333	434.605469	25.726810
-7252.263989	3800.962333	433.337891	356.852295
-7252.263989	3800.962333	432.070313	-16.769314
-7252.263989	3800.962333	430.801758	54.511036
-7252.263989	3800.962333	429.533203	1.376177
-7252.263989	3800.962333	428.264648	257.659454
-7252.263989	3800.962333	426.996094	66.964561
-7252.263989	3800.962333	425.726563	272.752228
-7252.263989	3800.962333	424.457031	140.678818
-7252.263989	3800.962333	423.186523	330.833435
-7252.263989	3800.962333	421.916992	-141.155258
-7252.263989	3800.962333	420.646484	222.818512
-7252.263989	3800.962333	419.375977	101.134666
-7252.263989	3800.962333	418.104492	101.184082
-7252.263989	3800.962333	416.833008	288.144470
-7252.263989	3800.962333	415.561523	122.493439
-7252.263989	3800.962333	414.290039	167.648865
-7252.263989	3800.962333	413.017578	140.842331
-7252.263989	3800.962333	411.746094	55.157661
-7252.263989	3800.962333	410.472656	-100.246948
-7252.263989	3800.962333	409.200195	122.232872
-7252.263989	3800.962333	407.926758	-181.273926
-7252.263989	3800.962333	406.653320	62.376274
-7252.263989	3800.962333	405.379883	101.581856
-7252.263989	3800.962333	404.105469	175.246979
-7252.263989	3800.962333	402.831055	51.124733
-7252.263989	3800.962333	401.556641	122.067162
-7252.263989	3800.962333	400.282227	387.938843
-7252.263989	3800.962333	399.006836	321.571228
-7252.263989	3800.962333	397.731445	181.209808
-7252.263989	3800.962333	396.456055	322.432556
-7252.263989	3800.962333	395.179688	346.231873
-7252.263989	3800.962333	393.903320	139.998962
-7252.263989	3800.962333	392.626953	102.507629
-7252.263989	3800.962333	391.350586	183.819626
-7252.263989	3800.962333	390.073242	303.716675
-7252.263989	3800.962333	388.795898	364.740753
-7252.263989	3800.962333	387.518555	22.747021
-7252.263989	3800.962333	386.240234	165.276627
-7252.263989	3800.962333	384.961914	229.456772
-7252.263989	3800.962333	383.683594	152.594330
-7252.263989	3800.962333	382.405273	133.742096
-7252.263989	3800.962333	381.125977	192.302536
-7252.263989	3800.962333	379.846680	328.221741
-7252.263989	3800.962333	378.567383	163.207275
-7252.263989	3800.962333	377.287109	211.715729
-7252.263989	3800.962333	376.006836	277.011017
-7252.263989	3800.962333	374.726563	37.243534
-7252.263989	3800.962333	373.446289	99.400398
-7252.263989	3800.962333	372.165039	258.162537
-7252.263989	3800.962333	370.883789	230.698944
-7252.263989	3800.962333	369.602539	96.966850
-7252.263989	3800.962333	368.320313	247.527267
-7252.263989	3800.962333	367.039063	246.473663
-7252.263989	3800.962333	365.755859	173.650238
-7252.263989	3800.962333	364.473633	11.877039
-7252.263989	3800.962333	363.190430	-98.708450
-7252.263989	3800.962333	361.907227	201.780121
-7252.263989	3800.962333	360.624023	361.445190
-7252.263989	3800.962333	359.340820	337.279663
-7252.263989	3800.962333	358.056641	-12.775948
-7252.263989	3800.962333	356.772461	58.695084
-7252.263989	3800.962333	355.487305	75.604485
-7252.263989	3800.962333	354.202148	190.807068
-7252.263989	3800.962333	352.916992	126.625778
-7252.263989	3800.962333	351.631836	20.856022
-7252.263989	3800.962333	350.346680	-72.718712
-7252.263989	3800.962333	349.060547	15.751904
-7252.263989	3800.962333	347.774414	4.493504
-7252.263989	3800.962333	346.487305	-127.961632
-7252.263989	3800.962333	345.200195	-72.060951
-7252.263989	3800.962333	343.913086	0.166452
-7252.263989	3800.962333	342.625977	157.432510
-7252.263989	3800.962333	341.338867	-102.897705
-7252.263989	3800.962333	340.050781	31.062199
-7252.263989	3800.962333	338.762695	-95.704453
-7252.263989	3800.962333	337.473633	81.406662
-7252.263989	3800.962333	336.184570	105.138519
-7252.263989	3800.962333	334.895508	-65.186905
-7252.263989	3800.962333	333.606445	-69.119926
-7252.263989	3800.962333	332.317383	-93.354614
-7252.263989	3800.962333	331.027344	-54.309010
-7252.263989	3800.962333	329.736328	-52.791275
-7252.263989	3800.962333	328.446289	35.555649
-7252.263989	3800.962333	327.155273	62.761711
-7252.263989	3800.962333	325.864258	-204.613480
-7252.263989	3800.962333	324.573242	-224.566147
-7252.263989	3800.962333	323.281250	41.226509
-7252.263989	3800.962333	321.989258	-244.417343
-7252.263989	3800.962333	320.697266	-79.537537
-7252.263989	3800.962333	319.405273	-78.557945
-7252.263989	3800.962333	318.112305	-61.730614
-7252.263989	3800.962333	316.819336	-69.688881
-7252.263989	3800.962333	315.526367	66.489365
-7252.263989	3800.962333	314.232422	-83.064758
-7252.263989	3800.962333	312.938477	-159.064560
-7252.263989	3800.962333	311.644531	-108.156998
-7252.263989	3800.962333	310.349609	16.096870
-7252.263989	3800.962333	309.054688	102.593330
-7252.263989	3800.962333	307.759766	172.690598
-7252.263989	3800.962333	306.464844	42.757408
-7252.263989	3800.962333	305.168945	272.122009
-7252.263989	3800.962333	303.873047	124.290352
-7252.263989	3800.962333	302.577148	429.484924
-7252.263989	3800.962333	301.281250	523.955322
-7252.263989	3800.962333	299.984375	527.199219
