#X		#Y		#Wave		#Intensity
-7423.584840	4058.197667	1999.946289	46.527756
-7423.584840	4058.197667	1998.981445	-87.116013
-7423.584840	4058.197667	1998.017578	-153.673447
-7423.584840	4058.197667	1997.052734	12.568211
-7423.584840	4058.197667	1996.088867	-128.656311
-7423.584840	4058.197667	1995.124023	-54.473988
-7423.584840	4058.197667	1994.159180	9.609694
-7423.584840	4058.197667	1993.193359	85.893990
-7423.584840	4058.197667	1992.228516	-43.504379
-7423.584840	4058.197667	1991.262695	-143.301819
-7423.584840	4058.197667	1990.296875	98.320839
-7423.584840	4058.197667	1989.331055	124.428986
-7423.584840	4058.197667	1988.365234	39.051865
-7423.584840	4058.197667	1987.398438	121.764832
-7423.584840	4058.197667	1986.432617	-47.949635
-7423.584840	4058.197667	1985.465820	-29.818848
-7423.584840	4058.197667	1984.499023	64.806023
-7423.584840	4058.197667	1983.532227	-45.888832
-7423.584840	4058.197667	1982.565430	1.485841
-7423.584840	4058.197667	1981.597656	196.962280
-7423.584840	4058.197667	1980.629883	103.213127
-7423.584840	4058.197667	1979.662109	66.181183
-7423.584840	4058.197667	1978.694336	-54.919292
-7423.584840	4058.197667	1977.726563	83.144470
-7423.584840	4058.197667	1976.758789	11.219431
-7423.584840	4058.197667	1975.790039	-80.537216
-7423.584840	4058.197667	1974.821289	10.226336
-7423.584840	4058.197667	1973.852539	-39.780785
-7423.584840	4058.197667	1972.883789	90.186646
-7423.584840	4058.197667	1971.915039	42.433361
-7423.584840	4058.197667	1970.945313	-89.241631
-7423.584840	4058.197667	1969.975586	-82.915878
-7423.584840	4058.197667	1969.005859	34.221085
-7423.584840	4058.197667	1968.036133	111.785355
-7423.584840	4058.197667	1967.066406	61.099037
-7423.584840	4058.197667	1966.096680	108.872856
-7423.584840	4058.197667	1965.125977	-79.912415
-7423.584840	4058.197667	1964.155273	63.719730
-7423.584840	4058.197667	1963.184570	22.552183
-7423.584840	4058.197667	1962.213867	15.771091
-7423.584840	4058.197667	1961.242188	63.049076
-7423.584840	4058.197667	1960.271484	-66.947762
-7423.584840	4058.197667	1959.299805	-64.129791
-7423.584840	4058.197667	1958.328125	-24.500641
-7423.584840	4058.197667	1957.356445	115.861000
-7423.584840	4058.197667	1956.384766	2.826599
-7423.584840	4058.197667	1955.412109	-90.580383
-7423.584840	4058.197667	1954.439453	128.127823
-7423.584840	4058.197667	1953.467773	93.554512
-7423.584840	4058.197667	1952.495117	132.626770
-7423.584840	4058.197667	1951.521484	38.952965
-7423.584840	4058.197667	1950.548828	38.571556
-7423.584840	4058.197667	1949.575195	-173.071396
-7423.584840	4058.197667	1948.601563	-153.919479
-7423.584840	4058.197667	1947.627930	-31.747068
-7423.584840	4058.197667	1946.654297	-12.771882
-7423.584840	4058.197667	1945.680664	99.372284
-7423.584840	4058.197667	1944.706055	-139.429016
-7423.584840	4058.197667	1943.732422	117.280472
-7423.584840	4058.197667	1942.757813	59.910412
-7423.584840	4058.197667	1941.783203	-9.764737
-7423.584840	4058.197667	1940.807617	-10.838317
-7423.584840	4058.197667	1939.833008	-48.741379
-7423.584840	4058.197667	1938.857422	106.903877
-7423.584840	4058.197667	1937.881836	-41.395527
-7423.584840	4058.197667	1936.906250	28.322056
-7423.584840	4058.197667	1935.930664	225.314148
-7423.584840	4058.197667	1934.955078	-57.797508
-7423.584840	4058.197667	1933.978516	-17.683039
-7423.584840	4058.197667	1933.001953	88.447945
-7423.584840	4058.197667	1932.025391	-16.000647
-7423.584840	4058.197667	1931.048828	-140.045837
-7423.584840	4058.197667	1930.072266	-53.702740
-7423.584840	4058.197667	1929.094727	79.023148
-7423.584840	4058.197667	1928.118164	20.884529
-7423.584840	4058.197667	1927.140625	104.526985
-7423.584840	4058.197667	1926.163086	58.511654
-7423.584840	4058.197667	1925.184570	-2.212211
-7423.584840	4058.197667	1924.207031	90.991272
-7423.584840	4058.197667	1923.228516	69.263229
-7423.584840	4058.197667	1922.250000	-1.369228
-7423.584840	4058.197667	1921.271484	203.962387
-7423.584840	4058.197667	1920.292969	-69.465233
-7423.584840	4058.197667	1919.314453	-127.992645
-7423.584840	4058.197667	1918.334961	-101.119370
-7423.584840	4058.197667	1917.355469	-267.118896
-7423.584840	4058.197667	1916.375977	-237.899231
-7423.584840	4058.197667	1915.396484	49.863110
-7423.584840	4058.197667	1914.416992	127.687828
-7423.584840	4058.197667	1913.436523	17.640482
-7423.584840	4058.197667	1912.457031	5.115811
-7423.584840	4058.197667	1911.476563	-12.337380
-7423.584840	4058.197667	1910.496094	-176.083176
-7423.584840	4058.197667	1909.515625	-256.964233
-7423.584840	4058.197667	1908.534180	-28.436844
-7423.584840	4058.197667	1907.552734	-187.380600
-7423.584840	4058.197667	1906.572266	-19.945417
-7423.584840	4058.197667	1905.590820	130.323044
-7423.584840	4058.197667	1904.608398	-94.463051
-7423.584840	4058.197667	1903.626953	-0.331982
-7423.584840	4058.197667	1902.644531	-142.369812
-7423.584840	4058.197667	1901.663086	148.726425
-7423.584840	4058.197667	1900.680664	-115.037788
-7423.584840	4058.197667	1899.698242	95.563721
-7423.584840	4058.197667	1898.714844	155.245895
-7423.584840	4058.197667	1897.732422	30.061069
-7423.584840	4058.197667	1896.749023	38.572872
-7423.584840	4058.197667	1895.765625	12.997869
-7423.584840	4058.197667	1894.782227	-107.398407
-7423.584840	4058.197667	1893.798828	129.360489
-7423.584840	4058.197667	1892.814453	-127.163239
-7423.584840	4058.197667	1891.831055	9.820623
-7423.584840	4058.197667	1890.846680	64.129883
-7423.584840	4058.197667	1889.862305	-107.428787
-7423.584840	4058.197667	1888.877930	189.512619
-7423.584840	4058.197667	1887.892578	-229.672501
-7423.584840	4058.197667	1886.908203	-102.787193
-7423.584840	4058.197667	1885.922852	99.197685
-7423.584840	4058.197667	1884.937500	140.959152
-7423.584840	4058.197667	1883.952148	20.163977
-7423.584840	4058.197667	1882.965820	20.586647
-7423.584840	4058.197667	1881.980469	-12.982633
-7423.584840	4058.197667	1880.994141	106.096039
-7423.584840	4058.197667	1880.007813	79.672752
-7423.584840	4058.197667	1879.021484	99.235550
-7423.584840	4058.197667	1878.035156	65.438484
-7423.584840	4058.197667	1877.047852	87.295898
-7423.584840	4058.197667	1876.061523	116.355446
-7423.584840	4058.197667	1875.074219	121.128410
-7423.584840	4058.197667	1874.086914	26.595055
-7423.584840	4058.197667	1873.098633	-21.984440
-7423.584840	4058.197667	1872.111328	227.021042
-7423.584840	4058.197667	1871.123047	-29.754663
-7423.584840	4058.197667	1870.135742	-129.269089
-7423.584840	4058.197667	1869.147461	-71.621040
-7423.584840	4058.197667	1868.158203	164.861862
-7423.584840	4058.197667	1867.169922	113.525146
-7423.584840	4058.197667	1866.180664	33.135860
-7423.584840	4058.197667	1865.192383	100.127655
-7423.584840	4058.197667	1864.203125	96.959709
-7423.584840	4058.197667	1863.213867	14.013272
-7423.584840	4058.197667	1862.223633	114.581047
-7423.584840	4058.197667	1861.234375	-84.371597
-7423.584840	4058.197667	1860.244141	-68.450417
-7423.584840	4058.197667	1859.253906	229.813965
-7423.584840	4058.197667	1858.263672	86.258141
-7423.584840	4058.197667	1857.273438	179.154266
-7423.584840	4058.197667	1856.282227	16.224331
-7423.584840	4058.197667	1855.291992	-42.988388
-7423.584840	4058.197667	1854.300781	138.900803
-7423.584840	4058.197667	1853.309570	197.689758
-7423.584840	4058.197667	1852.317383	102.102203
-7423.584840	4058.197667	1851.326172	-12.792726
-7423.584840	4058.197667	1850.333984	-115.670395
-7423.584840	4058.197667	1849.342773	-52.331528
-7423.584840	4058.197667	1848.350586	-70.991791
-7423.584840	4058.197667	1847.357422	-15.061840
-7423.584840	4058.197667	1846.365234	-122.954308
-7423.584840	4058.197667	1845.372070	33.937984
-7423.584840	4058.197667	1844.379883	53.507378
-7423.584840	4058.197667	1843.386719	-90.652885
-7423.584840	4058.197667	1842.393555	241.577072
-7423.584840	4058.197667	1841.399414	152.615570
-7423.584840	4058.197667	1840.406250	70.837883
-7423.584840	4058.197667	1839.412109	61.154137
-7423.584840	4058.197667	1838.417969	32.166897
-7423.584840	4058.197667	1837.423828	39.175674
-7423.584840	4058.197667	1836.429688	72.545418
-7423.584840	4058.197667	1835.434570	48.150097
-7423.584840	4058.197667	1834.440430	-7.533570
-7423.584840	4058.197667	1833.445313	-56.071865
-7423.584840	4058.197667	1832.450195	3.403839
-7423.584840	4058.197667	1831.454102	-86.095055
-7423.584840	4058.197667	1830.458984	-26.785591
-7423.584840	4058.197667	1829.462891	-5.986554
-7423.584840	4058.197667	1828.466797	110.719810
-7423.584840	4058.197667	1827.470703	44.958244
-7423.584840	4058.197667	1826.474609	113.481430
-7423.584840	4058.197667	1825.478516	35.598686
-7423.584840	4058.197667	1824.481445	-126.268883
-7423.584840	4058.197667	1823.484375	193.747040
-7423.584840	4058.197667	1822.487305	204.343491
-7423.584840	4058.197667	1821.490234	123.786842
-7423.584840	4058.197667	1820.493164	74.332741
-7423.584840	4058.197667	1819.495117	151.781815
-7423.584840	4058.197667	1818.498047	35.117050
-7423.584840	4058.197667	1817.500000	74.069748
-7423.584840	4058.197667	1816.500977	129.680511
-7423.584840	4058.197667	1815.502930	316.862457
-7423.584840	4058.197667	1814.504883	80.255943
-7423.584840	4058.197667	1813.505859	226.527420
-7423.584840	4058.197667	1812.506836	154.943542
-7423.584840	4058.197667	1811.507813	100.050034
-7423.584840	4058.197667	1810.508789	-36.219677
-7423.584840	4058.197667	1809.508789	80.937309
-7423.584840	4058.197667	1808.508789	-21.977665
-7423.584840	4058.197667	1807.508789	75.847763
-7423.584840	4058.197667	1806.508789	-20.021114
-7423.584840	4058.197667	1805.508789	139.727097
-7423.584840	4058.197667	1804.508789	244.388199
-7423.584840	4058.197667	1803.507813	105.292953
-7423.584840	4058.197667	1802.506836	188.254761
-7423.584840	4058.197667	1801.505859	-39.281189
-7423.584840	4058.197667	1800.504883	-56.747593
-7423.584840	4058.197667	1799.502930	-33.727009
-7423.584840	4058.197667	1798.501953	-146.801712
-7423.584840	4058.197667	1797.500000	-2.264717
-7423.584840	4058.197667	1796.498047	111.124588
-7423.584840	4058.197667	1795.496094	-73.718811
-7423.584840	4058.197667	1794.493164	-84.524292
-7423.584840	4058.197667	1793.491211	-135.926056
-7423.584840	4058.197667	1792.488281	50.948147
-7423.584840	4058.197667	1791.485352	211.454605
-7423.584840	4058.197667	1790.482422	-190.477966
-7423.584840	4058.197667	1789.478516	-3.961167
-7423.584840	4058.197667	1788.475586	-81.956490
-7423.584840	4058.197667	1787.471680	292.419312
-7423.584840	4058.197667	1786.467773	-2.434074
-7423.584840	4058.197667	1785.463867	-99.691444
-7423.584840	4058.197667	1784.459961	-8.983604
-7423.584840	4058.197667	1783.455078	5.451486
-7423.584840	4058.197667	1782.450195	274.349792
-7423.584840	4058.197667	1781.445313	174.388092
-7423.584840	4058.197667	1780.440430	-132.512589
-7423.584840	4058.197667	1779.435547	-201.617828
-7423.584840	4058.197667	1778.429688	-14.055546
-7423.584840	4058.197667	1777.424805	-99.962250
-7423.584840	4058.197667	1776.418945	27.934364
-7423.584840	4058.197667	1775.413086	-65.254166
-7423.584840	4058.197667	1774.406250	-132.373825
-7423.584840	4058.197667	1773.400391	113.952240
-7423.584840	4058.197667	1772.393555	219.993790
-7423.584840	4058.197667	1771.386719	-25.444899
-7423.584840	4058.197667	1770.379883	144.502533
-7423.584840	4058.197667	1769.373047	62.751316
-7423.584840	4058.197667	1768.365234	113.804665
-7423.584840	4058.197667	1767.358398	-1.286768
-7423.584840	4058.197667	1766.350586	35.363132
-7423.584840	4058.197667	1765.342773	-155.730896
-7423.584840	4058.197667	1764.334961	-69.442680
-7423.584840	4058.197667	1763.326172	-59.135502
-7423.584840	4058.197667	1762.318359	-39.422970
-7423.584840	4058.197667	1761.309570	271.638916
-7423.584840	4058.197667	1760.300781	108.687393
-7423.584840	4058.197667	1759.291016	-75.615723
-7423.584840	4058.197667	1758.282227	135.567780
-7423.584840	4058.197667	1757.272461	17.463562
-7423.584840	4058.197667	1756.262695	79.235565
-7423.584840	4058.197667	1755.252930	72.264938
-7423.584840	4058.197667	1754.243164	43.919174
-7423.584840	4058.197667	1753.233398	-24.715467
-7423.584840	4058.197667	1752.222656	48.509701
-7423.584840	4058.197667	1751.211914	19.930887
-7423.584840	4058.197667	1750.201172	-15.808990
-7423.584840	4058.197667	1749.190430	-53.979107
-7423.584840	4058.197667	1748.179688	49.606441
-7423.584840	4058.197667	1747.167969	-40.724266
-7423.584840	4058.197667	1746.156250	-100.381699
-7423.584840	4058.197667	1745.144531	-65.602768
-7423.584840	4058.197667	1744.132813	195.824829
-7423.584840	4058.197667	1743.121094	256.355621
-7423.584840	4058.197667	1742.108398	73.592743
-7423.584840	4058.197667	1741.095703	188.247238
-7423.584840	4058.197667	1740.083008	102.177940
-7423.584840	4058.197667	1739.070313	-83.038544
-7423.584840	4058.197667	1738.057617	102.127533
-7423.584840	4058.197667	1737.043945	-116.204338
-7423.584840	4058.197667	1736.030273	-30.313007
-7423.584840	4058.197667	1735.016602	36.609631
-7423.584840	4058.197667	1734.002930	23.281839
-7423.584840	4058.197667	1732.989258	139.516617
-7423.584840	4058.197667	1731.974609	-27.154739
-7423.584840	4058.197667	1730.959961	152.497131
-7423.584840	4058.197667	1729.945313	-127.325104
-7423.584840	4058.197667	1728.930664	-136.273254
-7423.584840	4058.197667	1727.916016	3.053608
-7423.584840	4058.197667	1726.900391	132.824219
-7423.584840	4058.197667	1725.885742	217.770081
-7423.584840	4058.197667	1724.870117	71.975159
-7423.584840	4058.197667	1723.853516	-36.202747
-7423.584840	4058.197667	1722.837891	297.859863
-7423.584840	4058.197667	1721.822266	238.950760
-7423.584840	4058.197667	1720.805664	5.968879
-7423.584840	4058.197667	1719.789063	367.827911
-7423.584840	4058.197667	1718.772461	400.396667
-7423.584840	4058.197667	1717.754883	515.127563
-7423.584840	4058.197667	1716.738281	437.089233
-7423.584840	4058.197667	1715.720703	690.246460
-7423.584840	4058.197667	1714.703125	569.781799
-7423.584840	4058.197667	1713.685547	876.701782
-7423.584840	4058.197667	1712.667969	1061.349854
-7423.584840	4058.197667	1711.649414	1011.104065
-7423.584840	4058.197667	1710.630859	1118.065186
-7423.584840	4058.197667	1709.612305	1093.516968
-7423.584840	4058.197667	1708.593750	1423.181030
-7423.584840	4058.197667	1707.575195	1546.241455
-7423.584840	4058.197667	1706.555664	1418.242188
-7423.584840	4058.197667	1705.536133	1299.613281
-7423.584840	4058.197667	1704.516602	845.736511
-7423.584840	4058.197667	1703.497070	1001.380005
-7423.584840	4058.197667	1702.477539	997.556274
-7423.584840	4058.197667	1701.457031	1078.009155
-7423.584840	4058.197667	1700.437500	853.866516
-7423.584840	4058.197667	1699.416992	765.579041
-7423.584840	4058.197667	1698.395508	902.049683
-7423.584840	4058.197667	1697.375000	752.810913
-7423.584840	4058.197667	1696.354492	753.383789
-7423.584840	4058.197667	1695.333008	938.768799
-7423.584840	4058.197667	1694.311523	550.779541
-7423.584840	4058.197667	1693.290039	778.141296
-7423.584840	4058.197667	1692.267578	832.271484
-7423.584840	4058.197667	1691.246094	963.518494
-7423.584840	4058.197667	1690.223633	1017.496338
-7423.584840	4058.197667	1689.201172	1026.994507
-7423.584840	4058.197667	1688.178711	1468.808716
-7423.584840	4058.197667	1687.155273	1569.239014
-7423.584840	4058.197667	1686.132813	1742.025635
-7423.584840	4058.197667	1685.109375	1671.766846
-7423.584840	4058.197667	1684.085938	2063.885010
-7423.584840	4058.197667	1683.062500	2656.608643
-7423.584840	4058.197667	1682.039063	2943.254883
-7423.584840	4058.197667	1681.014648	3152.713379
-7423.584840	4058.197667	1679.990234	3439.059082
-7423.584840	4058.197667	1678.965820	3820.910156
-7423.584840	4058.197667	1677.941406	4200.245605
-7423.584840	4058.197667	1676.916992	4581.730957
-7423.584840	4058.197667	1675.891602	4720.517578
-7423.584840	4058.197667	1674.866211	4824.244141
-7423.584840	4058.197667	1673.840820	4659.855469
-7423.584840	4058.197667	1672.815430	4038.743408
-7423.584840	4058.197667	1671.790039	3977.019531
-7423.584840	4058.197667	1670.763672	3498.296387
-7423.584840	4058.197667	1669.737305	3192.074951
-7423.584840	4058.197667	1668.710938	2804.442139
-7423.584840	4058.197667	1667.684570	2642.757813
-7423.584840	4058.197667	1666.658203	2481.109375
-7423.584840	4058.197667	1665.630859	2375.331543
-7423.584840	4058.197667	1664.603516	2136.944580
-7423.584840	4058.197667	1663.576172	1940.496460
-7423.584840	4058.197667	1662.548828	1867.374023
-7423.584840	4058.197667	1661.520508	1887.256592
-7423.584840	4058.197667	1660.493164	1744.378052
-7423.584840	4058.197667	1659.464844	1638.709595
-7423.584840	4058.197667	1658.436523	1702.719116
-7423.584840	4058.197667	1657.408203	1597.060181
-7423.584840	4058.197667	1656.378906	1839.884521
-7423.584840	4058.197667	1655.350586	1632.004517
-7423.584840	4058.197667	1654.321289	1674.979004
-7423.584840	4058.197667	1653.291992	1885.092529
-7423.584840	4058.197667	1652.261719	2111.343750
-7423.584840	4058.197667	1651.232422	2246.997070
-7423.584840	4058.197667	1650.202148	2178.363281
-7423.584840	4058.197667	1649.171875	2121.344238
-7423.584840	4058.197667	1648.141602	2196.555908
-7423.584840	4058.197667	1647.111328	2515.238037
-7423.584840	4058.197667	1646.080078	2451.187744
-7423.584840	4058.197667	1645.049805	2503.084717
-7423.584840	4058.197667	1644.018555	2281.437012
-7423.584840	4058.197667	1642.987305	2196.593506
-7423.584840	4058.197667	1641.955078	2009.818604
-7423.584840	4058.197667	1640.923828	2047.827026
-7423.584840	4058.197667	1639.891602	1814.828125
-7423.584840	4058.197667	1638.859375	1831.996948
-7423.584840	4058.197667	1637.827148	1900.092407
-7423.584840	4058.197667	1636.794922	1757.529541
-7423.584840	4058.197667	1635.761719	2112.559082
-7423.584840	4058.197667	1634.729492	2275.430664
-7423.584840	4058.197667	1633.696289	2211.521973
-7423.584840	4058.197667	1632.662109	2427.482178
-7423.584840	4058.197667	1631.628906	2849.183838
-7423.584840	4058.197667	1630.594727	3069.573242
-7423.584840	4058.197667	1629.561523	3176.637939
-7423.584840	4058.197667	1628.527344	3302.142334
-7423.584840	4058.197667	1627.493164	3515.411621
-7423.584840	4058.197667	1626.458008	4031.222412
-7423.584840	4058.197667	1625.423828	4112.636230
-7423.584840	4058.197667	1624.388672	4226.343750
-7423.584840	4058.197667	1623.353516	4559.359863
-7423.584840	4058.197667	1622.318359	4760.684570
-7423.584840	4058.197667	1621.282227	4911.156250
-7423.584840	4058.197667	1620.247070	4752.403809
-7423.584840	4058.197667	1619.210938	4598.327637
-7423.584840	4058.197667	1618.174805	4566.580078
-7423.584840	4058.197667	1617.137695	4534.846680
-7423.584840	4058.197667	1616.101563	4304.877930
-7423.584840	4058.197667	1615.064453	4028.899902
-7423.584840	4058.197667	1614.027344	3981.225830
-7423.584840	4058.197667	1612.990234	3942.813965
-7423.584840	4058.197667	1611.953125	3812.286377
-7423.584840	4058.197667	1610.916016	3656.499512
-7423.584840	4058.197667	1609.877930	3450.116699
-7423.584840	4058.197667	1608.839844	3481.006104
-7423.584840	4058.197667	1607.801758	3468.174561
-7423.584840	4058.197667	1606.763672	3499.109619
-7423.584840	4058.197667	1605.724609	3564.566162
-7423.584840	4058.197667	1604.685547	3809.488770
-7423.584840	4058.197667	1603.646484	3670.200195
-7423.584840	4058.197667	1602.607422	3250.422607
-7423.584840	4058.197667	1601.568359	3453.980957
-7423.584840	4058.197667	1600.528320	3112.628906
-7423.584840	4058.197667	1599.489258	3182.897461
-7423.584840	4058.197667	1598.449219	3547.310547
-7423.584840	4058.197667	1597.408203	3403.838135
-7423.584840	4058.197667	1596.368164	3692.342773
-7423.584840	4058.197667	1595.327148	3558.168945
-7423.584840	4058.197667	1594.287109	3637.657959
-7423.584840	4058.197667	1593.246094	3815.864990
-7423.584840	4058.197667	1592.204102	4301.607910
-7423.584840	4058.197667	1591.163086	4518.721191
-7423.584840	4058.197667	1590.121094	4547.636230
-7423.584840	4058.197667	1589.079102	5212.028320
-7423.584840	4058.197667	1588.037109	5500.068359
-7423.584840	4058.197667	1586.995117	5572.492188
-7423.584840	4058.197667	1585.953125	5926.937012
-7423.584840	4058.197667	1584.910156	6272.112793
-7423.584840	4058.197667	1583.867188	6323.860352
-7423.584840	4058.197667	1582.824219	5912.795898
-7423.584840	4058.197667	1581.781250	5820.379883
-7423.584840	4058.197667	1580.737305	6138.024902
-7423.584840	4058.197667	1579.693359	6341.107422
-7423.584840	4058.197667	1578.649414	5868.756836
-7423.584840	4058.197667	1577.605469	6197.830078
-7423.584840	4058.197667	1576.561523	6510.813965
-7423.584840	4058.197667	1575.516602	6764.229492
-7423.584840	4058.197667	1574.472656	6516.610352
-7423.584840	4058.197667	1573.427734	6827.233398
-7423.584840	4058.197667	1572.381836	6689.563965
-7423.584840	4058.197667	1571.336914	6536.025391
-7423.584840	4058.197667	1570.291016	6346.024414
-7423.584840	4058.197667	1569.246094	6339.019043
-7423.584840	4058.197667	1568.200195	6245.237305
-7423.584840	4058.197667	1567.153320	6012.189453
-7423.584840	4058.197667	1566.107422	5818.145996
-7423.584840	4058.197667	1565.060547	6017.033691
-7423.584840	4058.197667	1564.013672	5658.801270
-7423.584840	4058.197667	1562.966797	6095.198730
-7423.584840	4058.197667	1561.919922	6216.533691
-7423.584840	4058.197667	1560.872070	5959.087402
-7423.584840	4058.197667	1559.825195	6162.685547
-7423.584840	4058.197667	1558.777344	5989.900391
-7423.584840	4058.197667	1557.729492	6332.666016
-7423.584840	4058.197667	1556.680664	6255.822754
-7423.584840	4058.197667	1555.632813	6046.883301
-7423.584840	4058.197667	1554.583984	5965.729492
-7423.584840	4058.197667	1553.535156	5695.549805
-7423.584840	4058.197667	1552.486328	5630.608398
-7423.584840	4058.197667	1551.436523	5866.441406
-7423.584840	4058.197667	1550.387695	5589.858398
-7423.584840	4058.197667	1549.337891	5850.821289
-7423.584840	4058.197667	1548.288086	5549.467773
-7423.584840	4058.197667	1547.238281	5446.336914
-7423.584840	4058.197667	1546.187500	5397.936523
-7423.584840	4058.197667	1545.136719	5231.334961
-7423.584840	4058.197667	1544.086914	5397.011719
-7423.584840	4058.197667	1543.035156	5332.986328
-7423.584840	4058.197667	1541.984375	5241.802734
-7423.584840	4058.197667	1540.933594	4987.061523
-7423.584840	4058.197667	1539.881836	4771.144043
-7423.584840	4058.197667	1538.830078	4439.506836
-7423.584840	4058.197667	1537.778320	4548.869629
-7423.584840	4058.197667	1536.725586	4610.570313
-7423.584840	4058.197667	1535.673828	4004.638184
-7423.584840	4058.197667	1534.621094	3828.189941
-7423.584840	4058.197667	1533.568359	3447.588135
-7423.584840	4058.197667	1532.515625	3237.468750
-7423.584840	4058.197667	1531.461914	2973.056396
-7423.584840	4058.197667	1530.409180	2672.557617
-7423.584840	4058.197667	1529.355469	2535.593750
-7423.584840	4058.197667	1528.301758	1981.472168
-7423.584840	4058.197667	1527.247070	1806.344116
-7423.584840	4058.197667	1526.193359	1563.386108
-7423.584840	4058.197667	1525.138672	1309.282593
-7423.584840	4058.197667	1524.083984	1041.787842
-7423.584840	4058.197667	1523.029297	1026.002197
-7423.584840	4058.197667	1521.974609	1062.434204
-7423.584840	4058.197667	1520.918945	503.282166
-7423.584840	4058.197667	1519.863281	472.071808
-7423.584840	4058.197667	1518.807617	606.252869
-7423.584840	4058.197667	1517.751953	622.784912
-7423.584840	4058.197667	1516.696289	600.947876
-7423.584840	4058.197667	1515.639648	176.469971
-7423.584840	4058.197667	1514.583008	315.553955
-7423.584840	4058.197667	1513.526367	576.829285
-7423.584840	4058.197667	1512.469727	431.081696
-7423.584840	4058.197667	1511.412109	249.319092
-7423.584840	4058.197667	1510.355469	413.591705
-7423.584840	4058.197667	1509.297852	374.508820
-7423.584840	4058.197667	1508.240234	204.504883
-7423.584840	4058.197667	1507.181641	497.779694
-7423.584840	4058.197667	1506.124023	63.792652
-7423.584840	4058.197667	1505.065430	253.333603
-7423.584840	4058.197667	1504.006836	167.479095
-7423.584840	4058.197667	1502.948242	81.772575
-7423.584840	4058.197667	1501.888672	-107.603241
-7423.584840	4058.197667	1500.830078	-26.012352
-7423.584840	4058.197667	1499.770508	139.125198
-7423.584840	4058.197667	1498.710938	60.725212
-7423.584840	4058.197667	1497.650391	54.629051
-7423.584840	4058.197667	1496.590820	109.536201
-7423.584840	4058.197667	1495.530273	-56.368969
-7423.584840	4058.197667	1494.469727	-116.165306
-7423.584840	4058.197667	1493.409180	-220.877808
-7423.584840	4058.197667	1492.348633	210.734116
-7423.584840	4058.197667	1491.287109	101.729279
-7423.584840	4058.197667	1490.225586	407.237335
-7423.584840	4058.197667	1489.164063	334.506653
-7423.584840	4058.197667	1488.102539	430.752441
-7423.584840	4058.197667	1487.041016	443.814819
-7423.584840	4058.197667	1485.978516	454.741486
-7423.584840	4058.197667	1484.916016	195.956299
-7423.584840	4058.197667	1483.853516	364.500641
-7423.584840	4058.197667	1482.791016	600.700928
-7423.584840	4058.197667	1481.727539	423.269287
-7423.584840	4058.197667	1480.664063	452.824493
-7423.584840	4058.197667	1479.600586	158.899963
-7423.584840	4058.197667	1478.537109	478.591675
-7423.584840	4058.197667	1477.473633	254.763138
-7423.584840	4058.197667	1476.409180	489.269623
-7423.584840	4058.197667	1475.344727	512.699951
-7423.584840	4058.197667	1474.280273	320.858948
-7423.584840	4058.197667	1473.215820	739.567200
-7423.584840	4058.197667	1472.151367	702.856079
-7423.584840	4058.197667	1471.085938	1078.776733
-7423.584840	4058.197667	1470.020508	1192.517090
-7423.584840	4058.197667	1468.955078	882.557495
-7423.584840	4058.197667	1467.888672	1072.994507
-7423.584840	4058.197667	1466.823242	1365.956177
-7423.584840	4058.197667	1465.756836	1052.453613
-7423.584840	4058.197667	1464.690430	1461.974731
-7423.584840	4058.197667	1463.624023	1321.201172
-7423.584840	4058.197667	1462.556641	1323.669556
-7423.584840	4058.197667	1461.490234	1495.803345
-7423.584840	4058.197667	1460.422852	1523.620728
-7423.584840	4058.197667	1459.355469	1704.366821
-7423.584840	4058.197667	1458.287109	1718.570679
-7423.584840	4058.197667	1457.219727	2302.244873
-7423.584840	4058.197667	1456.151367	2484.892578
-7423.584840	4058.197667	1455.083008	2599.934326
-7423.584840	4058.197667	1454.014648	3134.371826
-7423.584840	4058.197667	1452.945313	3596.307373
-7423.584840	4058.197667	1451.876953	3718.193359
-7423.584840	4058.197667	1450.807617	3866.212158
-7423.584840	4058.197667	1449.738281	3773.058838
-7423.584840	4058.197667	1448.668945	3469.540039
-7423.584840	4058.197667	1447.598633	3069.494385
-7423.584840	4058.197667	1446.528320	3165.354980
-7423.584840	4058.197667	1445.458008	2857.369629
-7423.584840	4058.197667	1444.387695	2963.774658
-7423.584840	4058.197667	1443.317383	2545.937256
-7423.584840	4058.197667	1442.246094	2190.454590
-7423.584840	4058.197667	1441.174805	2354.655029
-7423.584840	4058.197667	1440.103516	2444.326172
-7423.584840	4058.197667	1439.032227	2489.328857
-7423.584840	4058.197667	1437.960938	2114.356201
-7423.584840	4058.197667	1436.888672	2077.105957
-7423.584840	4058.197667	1435.816406	1833.341553
-7423.584840	4058.197667	1434.744141	1922.322510
-7423.584840	4058.197667	1433.670898	1787.361694
-7423.584840	4058.197667	1432.598633	1514.872192
-7423.584840	4058.197667	1431.525391	1661.835327
-7423.584840	4058.197667	1430.452148	1398.195923
-7423.584840	4058.197667	1429.378906	1372.185913
-7423.584840	4058.197667	1428.304688	1274.732300
-7423.584840	4058.197667	1427.231445	1136.562988
-7423.584840	4058.197667	1426.157227	1321.391357
-7423.584840	4058.197667	1425.083008	1151.145386
-7423.584840	4058.197667	1424.007813	1131.686157
-7423.584840	4058.197667	1422.933594	1043.265869
-7423.584840	4058.197667	1421.858398	1300.774536
-7423.584840	4058.197667	1420.783203	1359.048096
-7423.584840	4058.197667	1419.708008	1536.906494
-7423.584840	4058.197667	1418.631836	1744.664551
-7423.584840	4058.197667	1417.555664	1914.971924
-7423.584840	4058.197667	1416.479492	2076.357666
-7423.584840	4058.197667	1415.403320	2237.868408
-7423.584840	4058.197667	1414.327148	2457.794922
-7423.584840	4058.197667	1413.250000	2689.499023
-7423.584840	4058.197667	1412.173828	2895.414307
-7423.584840	4058.197667	1411.096680	3071.182861
-7423.584840	4058.197667	1410.018555	3087.660400
-7423.584840	4058.197667	1408.941406	2866.447266
-7423.584840	4058.197667	1407.863281	3276.391846
-7423.584840	4058.197667	1406.785156	3378.910156
-7423.584840	4058.197667	1405.707031	3273.857422
-7423.584840	4058.197667	1404.628906	3191.381592
-7423.584840	4058.197667	1403.549805	3283.843750
-7423.584840	4058.197667	1402.470703	3487.835449
-7423.584840	4058.197667	1401.391602	3369.717529
-7423.584840	4058.197667	1400.312500	3306.428955
-7423.584840	4058.197667	1399.233398	2954.592529
-7423.584840	4058.197667	1398.153320	3269.016846
-7423.584840	4058.197667	1397.073242	3519.164063
-7423.584840	4058.197667	1395.993164	3361.305176
-7423.584840	4058.197667	1394.913086	3561.177979
-7423.584840	4058.197667	1393.832031	3308.804443
-7423.584840	4058.197667	1392.750977	3342.279053
-7423.584840	4058.197667	1391.669922	3452.935303
-7423.584840	4058.197667	1390.588867	3857.510986
-7423.584840	4058.197667	1389.506836	3938.167236
-7423.584840	4058.197667	1388.425781	4002.560547
-7423.584840	4058.197667	1387.343750	4132.330566
-7423.584840	4058.197667	1386.261719	4195.650879
-7423.584840	4058.197667	1385.178711	4132.507813
-7423.584840	4058.197667	1384.096680	4256.825684
-7423.584840	4058.197667	1383.013672	4197.209961
-7423.584840	4058.197667	1381.930664	4055.801025
-7423.584840	4058.197667	1380.846680	3993.184326
-7423.584840	4058.197667	1379.763672	3901.389893
-7423.584840	4058.197667	1378.679688	4043.988525
-7423.584840	4058.197667	1377.595703	4173.088379
-7423.584840	4058.197667	1376.511719	4354.446777
-7423.584840	4058.197667	1375.427734	4451.459473
-7423.584840	4058.197667	1374.342773	4729.039063
-7423.584840	4058.197667	1373.257813	5092.990723
-7423.584840	4058.197667	1372.172852	5026.001465
-7423.584840	4058.197667	1371.087891	5668.982910
-7423.584840	4058.197667	1370.001953	5895.454590
-7423.584840	4058.197667	1368.916992	6482.810547
-7423.584840	4058.197667	1367.831055	6978.986328
-7423.584840	4058.197667	1366.744141	7546.190430
-7423.584840	4058.197667	1365.658203	8086.711426
-7423.584840	4058.197667	1364.571289	8991.279297
-7423.584840	4058.197667	1363.484375	10097.085938
-7423.584840	4058.197667	1362.397461	11042.465820
-7423.584840	4058.197667	1361.310547	11751.426758
-7423.584840	4058.197667	1360.222656	11857.989258
-7423.584840	4058.197667	1359.135742	11581.041992
-7423.584840	4058.197667	1358.047852	11709.786133
-7423.584840	4058.197667	1356.958984	11234.627930
-7423.584840	4058.197667	1355.871094	10105.182617
-7423.584840	4058.197667	1354.782227	9512.640625
-7423.584840	4058.197667	1353.693359	8359.242188
-7423.584840	4058.197667	1352.604492	7997.159180
-7423.584840	4058.197667	1351.515625	6734.841309
-7423.584840	4058.197667	1350.425781	5898.843750
-7423.584840	4058.197667	1349.335938	5276.596680
-7423.584840	4058.197667	1348.246094	4759.895996
-7423.584840	4058.197667	1347.156250	4609.899414
-7423.584840	4058.197667	1346.066406	4153.092285
-7423.584840	4058.197667	1344.975586	3933.803467
-7423.584840	4058.197667	1343.884766	3447.624756
-7423.584840	4058.197667	1342.793945	3555.137207
-7423.584840	4058.197667	1341.702148	3196.994629
-7423.584840	4058.197667	1340.611328	3291.010010
-7423.584840	4058.197667	1339.519531	3231.582031
-7423.584840	4058.197667	1338.427734	3540.580322
-7423.584840	4058.197667	1337.334961	3695.862061
-7423.584840	4058.197667	1336.243164	3844.423828
-7423.584840	4058.197667	1335.150391	3911.761963
-7423.584840	4058.197667	1334.057617	4294.560059
-7423.584840	4058.197667	1332.964844	4255.269531
-7423.584840	4058.197667	1331.871094	4176.782227
-7423.584840	4058.197667	1330.778320	4053.626953
-7423.584840	4058.197667	1329.684570	3949.080322
-7423.584840	4058.197667	1328.590820	4089.599365
-7423.584840	4058.197667	1327.496094	3748.546143
-7423.584840	4058.197667	1326.402344	3368.343018
-7423.584840	4058.197667	1325.307617	3000.645752
-7423.584840	4058.197667	1324.212891	2908.304199
-7423.584840	4058.197667	1323.117188	2761.945557
-7423.584840	4058.197667	1322.022461	2611.662109
-7423.584840	4058.197667	1320.926758	2272.844482
-7423.584840	4058.197667	1319.831055	2105.621582
-7423.584840	4058.197667	1318.735352	2031.034912
-7423.584840	4058.197667	1317.638672	1831.458740
-7423.584840	4058.197667	1316.542969	1840.068481
-7423.584840	4058.197667	1315.446289	2029.603027
-7423.584840	4058.197667	1314.349609	2194.067627
-7423.584840	4058.197667	1313.251953	2019.365845
-7423.584840	4058.197667	1312.155273	1897.928223
-7423.584840	4058.197667	1311.057617	1909.086182
-7423.584840	4058.197667	1309.959961	2112.012451
-7423.584840	4058.197667	1308.862305	1978.794189
-7423.584840	4058.197667	1307.763672	1885.626221
-7423.584840	4058.197667	1306.665039	2140.651855
-7423.584840	4058.197667	1305.566406	1989.807617
-7423.584840	4058.197667	1304.467773	2234.713623
-7423.584840	4058.197667	1303.369141	2196.933838
-7423.584840	4058.197667	1302.269531	2207.065186
-7423.584840	4058.197667	1301.169922	2220.305908
-7423.584840	4058.197667	1300.070313	2340.193848
-7423.584840	4058.197667	1298.970703	2584.798340
-7423.584840	4058.197667	1297.870117	2508.977051
-7423.584840	4058.197667	1296.769531	2526.356934
-7423.584840	4058.197667	1295.668945	2564.382568
-7423.584840	4058.197667	1294.568359	2535.973145
-7423.584840	4058.197667	1293.466797	2458.353027
-7423.584840	4058.197667	1292.366211	2410.781006
-7423.584840	4058.197667	1291.264648	2504.461670
-7423.584840	4058.197667	1290.162109	2393.570313
-7423.584840	4058.197667	1289.060547	2538.833252
-7423.584840	4058.197667	1287.958008	2836.604492
-7423.584840	4058.197667	1286.855469	2831.863770
-7423.584840	4058.197667	1285.752930	2798.008789
-7423.584840	4058.197667	1284.650391	2800.042480
-7423.584840	4058.197667	1283.546875	2777.047607
-7423.584840	4058.197667	1282.444336	2965.828613
-7423.584840	4058.197667	1281.339844	2651.403320
-7423.584840	4058.197667	1280.236328	2499.551025
-7423.584840	4058.197667	1279.132813	2550.280029
-7423.584840	4058.197667	1278.028320	2250.966553
-7423.584840	4058.197667	1276.923828	2168.752197
-7423.584840	4058.197667	1275.819336	2080.372559
-7423.584840	4058.197667	1274.713867	1866.330566
-7423.584840	4058.197667	1273.608398	1717.566895
-7423.584840	4058.197667	1272.503906	1570.597900
-7423.584840	4058.197667	1271.397461	1292.128174
-7423.584840	4058.197667	1270.291992	1290.140869
-7423.584840	4058.197667	1269.185547	1198.660889
-7423.584840	4058.197667	1268.080078	1213.577271
-7423.584840	4058.197667	1266.972656	1190.653809
-7423.584840	4058.197667	1265.866211	1393.863403
-7423.584840	4058.197667	1264.759766	1298.996216
-7423.584840	4058.197667	1263.652344	1415.962158
-7423.584840	4058.197667	1262.544922	1567.283325
-7423.584840	4058.197667	1261.436523	1774.381104
-7423.584840	4058.197667	1260.329102	1651.308350
-7423.584840	4058.197667	1259.220703	1391.953979
-7423.584840	4058.197667	1258.112305	1499.255981
-7423.584840	4058.197667	1257.003906	1570.801392
-7423.584840	4058.197667	1255.895508	1454.438843
-7423.584840	4058.197667	1254.786133	1414.416138
-7423.584840	4058.197667	1253.676758	1453.935059
-7423.584840	4058.197667	1252.567383	1159.764160
-7423.584840	4058.197667	1251.458008	1268.340088
-7423.584840	4058.197667	1250.347656	1031.809204
-7423.584840	4058.197667	1249.237305	723.183472
-7423.584840	4058.197667	1248.126953	803.345032
-7423.584840	4058.197667	1247.016602	686.681641
-7423.584840	4058.197667	1245.905273	632.374817
-7423.584840	4058.197667	1244.793945	500.739349
-7423.584840	4058.197667	1243.682617	569.600586
-7423.584840	4058.197667	1242.571289	656.975220
-7423.584840	4058.197667	1241.459961	714.419067
-7423.584840	4058.197667	1240.347656	798.424316
-7423.584840	4058.197667	1239.235352	770.262756
-7423.584840	4058.197667	1238.123047	581.675659
-7423.584840	4058.197667	1237.009766	849.938599
-7423.584840	4058.197667	1235.897461	828.625000
-7423.584840	4058.197667	1234.784180	916.788635
-7423.584840	4058.197667	1233.670898	1139.279297
-7423.584840	4058.197667	1232.556641	1161.753540
-7423.584840	4058.197667	1231.443359	1258.116577
-7423.584840	4058.197667	1230.329102	1428.592407
-7423.584840	4058.197667	1229.214844	1734.589233
-7423.584840	4058.197667	1228.099609	1830.120972
-7423.584840	4058.197667	1226.985352	2110.370605
-7423.584840	4058.197667	1225.870117	2068.717773
-7423.584840	4058.197667	1224.754883	2393.596680
-7423.584840	4058.197667	1223.639648	2377.568848
-7423.584840	4058.197667	1222.523438	2285.823730
-7423.584840	4058.197667	1221.408203	2285.497803
-7423.584840	4058.197667	1220.291992	1890.583984
-7423.584840	4058.197667	1219.174805	1689.769165
-7423.584840	4058.197667	1218.058594	1635.130615
-7423.584840	4058.197667	1216.941406	1387.417603
-7423.584840	4058.197667	1215.824219	1186.460571
-7423.584840	4058.197667	1214.707031	1013.930481
-7423.584840	4058.197667	1213.589844	843.363770
-7423.584840	4058.197667	1212.471680	704.854370
-7423.584840	4058.197667	1211.353516	712.600830
-7423.584840	4058.197667	1210.235352	671.234192
-7423.584840	4058.197667	1209.117188	778.856262
-7423.584840	4058.197667	1207.998047	699.130493
-7423.584840	4058.197667	1206.878906	615.239624
-7423.584840	4058.197667	1205.759766	688.145935
-7423.584840	4058.197667	1204.640625	774.968811
-7423.584840	4058.197667	1203.520508	839.115662
-7423.584840	4058.197667	1202.401367	861.040039
-7423.584840	4058.197667	1201.281250	957.244080
-7423.584840	4058.197667	1200.160156	893.636292
-7423.584840	4058.197667	1199.040039	934.398682
-7423.584840	4058.197667	1197.918945	734.659363
-7423.584840	4058.197667	1196.797852	975.797668
-7423.584840	4058.197667	1195.676758	934.809937
-7423.584840	4058.197667	1194.555664	768.848938
-7423.584840	4058.197667	1193.433594	1020.553467
-7423.584840	4058.197667	1192.311523	912.120239
-7423.584840	4058.197667	1191.189453	808.955933
-7423.584840	4058.197667	1190.066406	917.259949
-7423.584840	4058.197667	1188.944336	960.800476
-7423.584840	4058.197667	1187.821289	860.028748
-7423.584840	4058.197667	1186.698242	830.848633
-7423.584840	4058.197667	1185.574219	769.563965
-7423.584840	4058.197667	1184.451172	623.383545
-7423.584840	4058.197667	1183.327148	693.105225
-7423.584840	4058.197667	1182.203125	637.082092
-7423.584840	4058.197667	1181.078125	548.646362
-7423.584840	4058.197667	1179.954102	500.478607
-7423.584840	4058.197667	1178.829102	455.351196
-7423.584840	4058.197667	1177.704102	466.433746
-7423.584840	4058.197667	1176.579102	259.416168
-7423.584840	4058.197667	1175.453125	172.039703
-7423.584840	4058.197667	1174.327148	241.153778
-7423.584840	4058.197667	1173.201172	405.335999
-7423.584840	4058.197667	1172.075195	502.840698
-7423.584840	4058.197667	1170.949219	346.944763
-7423.584840	4058.197667	1169.822266	293.762421
-7423.584840	4058.197667	1168.695313	305.149078
-7423.584840	4058.197667	1167.568359	192.617905
-7423.584840	4058.197667	1166.440430	103.009689
-7423.584840	4058.197667	1165.313477	119.035965
-7423.584840	4058.197667	1164.185547	91.104317
-7423.584840	4058.197667	1163.057617	47.233395
-7423.584840	4058.197667	1161.928711	-13.388463
-7423.584840	4058.197667	1160.800781	162.467133
-7423.584840	4058.197667	1159.671875	-105.310005
-7423.584840	4058.197667	1158.541992	14.260100
-7423.584840	4058.197667	1157.413086	-170.310806
-7423.584840	4058.197667	1156.283203	1.064249
-7423.584840	4058.197667	1155.154297	-157.277664
-7423.584840	4058.197667	1154.023438	-127.108940
-7423.584840	4058.197667	1152.893555	33.434799
-7423.584840	4058.197667	1151.763672	160.497849
-7423.584840	4058.197667	1150.632813	56.196106
-7423.584840	4058.197667	1149.501953	-28.832256
-7423.584840	4058.197667	1148.370117	82.635056
-7423.584840	4058.197667	1147.239258	11.018574
-7423.584840	4058.197667	1146.107422	84.313988
-7423.584840	4058.197667	1144.975586	26.271954
-7423.584840	4058.197667	1143.843750	35.061077
-7423.584840	4058.197667	1142.710938	-234.824020
-7423.584840	4058.197667	1141.578125	-178.078873
-7423.584840	4058.197667	1140.445313	-153.001617
-7423.584840	4058.197667	1139.312500	51.582233
-7423.584840	4058.197667	1138.178711	-183.856247
-7423.584840	4058.197667	1137.045898	61.298481
-7423.584840	4058.197667	1135.912109	-15.609793
-7423.584840	4058.197667	1134.777344	27.921495
-7423.584840	4058.197667	1133.643555	249.517853
-7423.584840	4058.197667	1132.508789	253.594193
-7423.584840	4058.197667	1131.374023	238.714142
-7423.584840	4058.197667	1130.239258	194.082550
-7423.584840	4058.197667	1129.104492	369.839783
-7423.584840	4058.197667	1127.968750	205.098312
-7423.584840	4058.197667	1126.833008	363.648499
-7423.584840	4058.197667	1125.697266	290.133636
-7423.584840	4058.197667	1124.560547	176.489395
-7423.584840	4058.197667	1123.424805	138.080200
-7423.584840	4058.197667	1122.288086	360.919067
-7423.584840	4058.197667	1121.151367	302.789734
-7423.584840	4058.197667	1120.013672	327.834686
-7423.584840	4058.197667	1118.876953	227.890457
-7423.584840	4058.197667	1117.739258	283.050781
-7423.584840	4058.197667	1116.601563	248.852539
-7423.584840	4058.197667	1115.462891	444.067017
-7423.584840	4058.197667	1114.324219	397.018280
-7423.584840	4058.197667	1113.186523	261.359558
-7423.584840	4058.197667	1112.046875	174.717422
-7423.584840	4058.197667	1110.908203	196.516861
-7423.584840	4058.197667	1109.769531	130.597488
-7423.584840	4058.197667	1108.629883	309.720673
-7423.584840	4058.197667	1107.490234	193.965637
-7423.584840	4058.197667	1106.349609	-3.312611
-7423.584840	4058.197667	1105.209961	255.661865
-7423.584840	4058.197667	1104.069336	163.720337
-7423.584840	4058.197667	1102.928711	354.000763
-7423.584840	4058.197667	1101.787109	306.895203
-7423.584840	4058.197667	1100.646484	-60.405117
-7423.584840	4058.197667	1099.504883	473.135956
-7423.584840	4058.197667	1098.363281	550.221924
-7423.584840	4058.197667	1097.221680	509.633057
-7423.584840	4058.197667	1096.079102	480.949738
-7423.584840	4058.197667	1094.936523	430.935181
-7423.584840	4058.197667	1093.793945	460.196838
-7423.584840	4058.197667	1092.651367	395.126282
-7423.584840	4058.197667	1091.507813	359.252014
-7423.584840	4058.197667	1090.364258	323.302338
-7423.584840	4058.197667	1089.220703	661.369995
-7423.584840	4058.197667	1088.077148	528.278259
-7423.584840	4058.197667	1086.933594	333.928528
-7423.584840	4058.197667	1085.789063	414.463440
-7423.584840	4058.197667	1084.644531	336.749115
-7423.584840	4058.197667	1083.499023	307.875427
-7423.584840	4058.197667	1082.354492	364.474335
-7423.584840	4058.197667	1081.208984	280.311340
-7423.584840	4058.197667	1080.063477	274.673737
-7423.584840	4058.197667	1078.917969	348.604523
-7423.584840	4058.197667	1077.771484	451.758789
-7423.584840	4058.197667	1076.625977	417.873444
-7423.584840	4058.197667	1075.479492	443.954834
-7423.584840	4058.197667	1074.332031	404.459015
-7423.584840	4058.197667	1073.185547	466.471802
-7423.584840	4058.197667	1072.038086	635.748291
-7423.584840	4058.197667	1070.890625	503.712830
-7423.584840	4058.197667	1069.743164	226.523773
-7423.584840	4058.197667	1068.594727	497.057587
-7423.584840	4058.197667	1067.447266	450.367279
-7423.584840	4058.197667	1066.298828	645.427429
-7423.584840	4058.197667	1065.149414	551.332703
-7423.584840	4058.197667	1064.000977	538.804382
-7423.584840	4058.197667	1062.851563	515.321655
-7423.584840	4058.197667	1061.702148	347.407837
-7423.584840	4058.197667	1060.552734	541.585510
-7423.584840	4058.197667	1059.402344	514.707520
-7423.584840	4058.197667	1058.252930	458.825562
-7423.584840	4058.197667	1057.102539	237.658707
-7423.584840	4058.197667	1055.951172	595.143555
-7423.584840	4058.197667	1054.800781	375.593719
-7423.584840	4058.197667	1053.649414	409.780884
-7423.584840	4058.197667	1052.498047	647.447388
-7423.584840	4058.197667	1051.346680	554.504578
-7423.584840	4058.197667	1050.194336	550.601929
-7423.584840	4058.197667	1049.042969	621.030945
-7423.584840	4058.197667	1047.890625	645.118591
-7423.584840	4058.197667	1046.738281	777.072266
-7423.584840	4058.197667	1045.584961	444.818726
-7423.584840	4058.197667	1044.431641	555.418884
-7423.584840	4058.197667	1043.278320	129.187515
-7423.584840	4058.197667	1042.125000	461.396271
-7423.584840	4058.197667	1040.971680	338.119598
-7423.584840	4058.197667	1039.817383	224.897354
-7423.584840	4058.197667	1038.663086	201.751617
-7423.584840	4058.197667	1037.508789	440.735413
-7423.584840	4058.197667	1036.353516	493.259521
-7423.584840	4058.197667	1035.198242	292.251465
-7423.584840	4058.197667	1034.042969	486.288666
-7423.584840	4058.197667	1032.887695	429.785431
-7423.584840	4058.197667	1031.732422	538.689270
-7423.584840	4058.197667	1030.576172	538.075928
-7423.584840	4058.197667	1029.419922	518.851563
-7423.584840	4058.197667	1028.263672	455.374878
-7423.584840	4058.197667	1027.106445	361.242981
-7423.584840	4058.197667	1025.949219	470.496948
-7423.584840	4058.197667	1024.792969	297.165253
-7423.584840	4058.197667	1023.634766	319.273895
-7423.584840	4058.197667	1022.477539	565.196838
-7423.584840	4058.197667	1021.319336	366.054657
-7423.584840	4058.197667	1020.161133	85.657097
-7423.584840	4058.197667	1019.002930	232.644089
-7423.584840	4058.197667	1017.843750	220.366440
-7423.584840	4058.197667	1016.684570	106.018806
-7423.584840	4058.197667	1015.525391	149.148346
-7423.584840	4058.197667	1014.366211	-60.432140
-7423.584840	4058.197667	1013.207031	51.635063
-7423.584840	4058.197667	1012.046875	-9.650938
-7423.584840	4058.197667	1010.886719	132.969101
-7423.584840	4058.197667	1009.726563	53.646858
-7423.584840	4058.197667	1008.565430	-137.625488
-7423.584840	4058.197667	1007.404297	-27.403049
-7423.584840	4058.197667	1006.243164	132.184601
-7423.584840	4058.197667	1005.082031	223.982468
-7423.584840	4058.197667	1003.920898	179.642258
-7423.584840	4058.197667	1002.758789	145.323975
-7423.584840	4058.197667	1001.596680	232.708008
-7423.584840	4058.197667	1000.433594	-6.327905
-7423.584840	4058.197667	999.271484	81.555382
-7423.584840	4058.197667	998.108398	24.728273
-7423.584840	4058.197667	996.945313	211.264801
-7423.584840	4058.197667	995.782227	124.872307
-7423.584840	4058.197667	994.618164	94.101273
-7423.584840	4058.197667	993.454102	12.532631
-7423.584840	4058.197667	992.290039	-105.940735
-7423.584840	4058.197667	991.125977	-135.885895
-7423.584840	4058.197667	989.960938	25.892063
-7423.584840	4058.197667	988.796875	-77.117889
-7423.584840	4058.197667	987.630859	110.905655
-7423.584840	4058.197667	986.465820	-121.553421
-7423.584840	4058.197667	985.300781	-22.284594
-7423.584840	4058.197667	984.134766	-84.796181
-7423.584840	4058.197667	982.968750	53.205849
-7423.584840	4058.197667	981.801758	-15.671635
-7423.584840	4058.197667	980.635742	57.920982
-7423.584840	4058.197667	979.468750	168.405136
-7423.584840	4058.197667	978.301758	-140.981705
-7423.584840	4058.197667	977.133789	-31.825130
-7423.584840	4058.197667	975.966797	161.944336
-7423.584840	4058.197667	974.798828	34.150330
-7423.584840	4058.197667	973.630859	49.681740
-7423.584840	4058.197667	972.461914	71.060310
-7423.584840	4058.197667	971.293945	58.727760
-7423.584840	4058.197667	970.125000	113.573944
-7423.584840	4058.197667	968.956055	33.185093
-7423.584840	4058.197667	967.786133	38.479355
-7423.584840	4058.197667	966.617188	-22.008648
-7423.584840	4058.197667	965.447266	177.195740
-7423.584840	4058.197667	964.276367	29.623999
-7423.584840	4058.197667	963.106445	146.915329
-7423.584840	4058.197667	961.935547	54.258137
-7423.584840	4058.197667	960.764648	-24.490713
-7423.584840	4058.197667	959.593750	17.902420
-7423.584840	4058.197667	958.422852	36.081341
-7423.584840	4058.197667	957.250977	-55.899277
-7423.584840	4058.197667	956.079102	60.513767
-7423.584840	4058.197667	954.907227	39.347065
-7423.584840	4058.197667	953.734375	127.174782
-7423.584840	4058.197667	952.562500	123.130524
-7423.584840	4058.197667	951.389648	108.382858
-7423.584840	4058.197667	950.215820	86.730782
-7423.584840	4058.197667	949.042969	247.682999
-7423.584840	4058.197667	947.869141	-16.289299
-7423.584840	4058.197667	946.695313	16.758766
-7423.584840	4058.197667	945.521484	153.011963
-7423.584840	4058.197667	944.346680	66.737671
-7423.584840	4058.197667	943.172852	-133.522095
-7423.584840	4058.197667	941.998047	-123.351990
-7423.584840	4058.197667	940.822266	178.970795
-7423.584840	4058.197667	939.647461	-156.672775
-7423.584840	4058.197667	938.471680	179.954834
-7423.584840	4058.197667	937.295898	-284.406525
-7423.584840	4058.197667	936.119141	88.880539
-7423.584840	4058.197667	934.943359	-23.302961
-7423.584840	4058.197667	933.766602	-6.644418
-7423.584840	4058.197667	932.589844	90.408585
-7423.584840	4058.197667	931.413086	111.600327
-7423.584840	4058.197667	930.235352	-41.969044
-7423.584840	4058.197667	929.057617	264.154266
-7423.584840	4058.197667	927.879883	234.576859
-7423.584840	4058.197667	926.702148	-17.935547
-7423.584840	4058.197667	925.523438	189.229813
-7423.584840	4058.197667	924.344727	44.782642
-7423.584840	4058.197667	923.166016	226.571671
-7423.584840	4058.197667	921.987305	63.720039
-7423.584840	4058.197667	920.807617	8.861930
-7423.584840	4058.197667	919.627930	16.297876
-7423.584840	4058.197667	919.497070	60.446487
-7423.584840	4058.197667	918.331055	-134.552490
-7423.584840	4058.197667	917.165039	-86.194412
-7423.584840	4058.197667	915.999023	-26.393305
-7423.584840	4058.197667	914.833008	63.196602
-7423.584840	4058.197667	913.666016	-154.625595
-7423.584840	4058.197667	912.499023	63.362560
-7423.584840	4058.197667	911.332031	-64.971710
-7423.584840	4058.197667	910.165039	-101.570770
-7423.584840	4058.197667	908.997070	265.219879
-7423.584840	4058.197667	907.830078	17.729973
-7423.584840	4058.197667	906.661133	17.769588
-7423.584840	4058.197667	905.493164	17.791348
-7423.584840	4058.197667	904.325195	-82.962395
-7423.584840	4058.197667	903.156250	-41.724934
-7423.584840	4058.197667	901.987305	-32.564781
-7423.584840	4058.197667	900.818359	-55.461460
-7423.584840	4058.197667	899.648438	79.531380
-7423.584840	4058.197667	898.478516	-110.401848
-7423.584840	4058.197667	897.308594	-94.415474
-7423.584840	4058.197667	896.138672	-87.594521
-7423.584840	4058.197667	894.968750	31.242598
-7423.584840	4058.197667	893.797852	-19.130718
-7423.584840	4058.197667	892.626953	63.057869
-7423.584840	4058.197667	891.456055	-60.443676
-7423.584840	4058.197667	890.284180	170.190720
-7423.584840	4058.197667	889.113281	167.745163
-7423.584840	4058.197667	887.941406	147.024185
-7423.584840	4058.197667	886.768555	23.567711
-7423.584840	4058.197667	885.596680	94.162788
-7423.584840	4058.197667	884.423828	68.872681
-7423.584840	4058.197667	883.250977	-43.123989
-7423.584840	4058.197667	882.078125	-9.091029
-7423.584840	4058.197667	880.905273	34.036846
-7423.584840	4058.197667	879.731445	-7.230868
-7423.584840	4058.197667	878.557617	-14.297555
-7423.584840	4058.197667	877.383789	-37.332325
-7423.584840	4058.197667	876.209961	-153.805084
-7423.584840	4058.197667	875.035156	-78.852890
-7423.584840	4058.197667	873.860352	39.335728
-7423.584840	4058.197667	872.685547	27.643394
-7423.584840	4058.197667	871.510742	-134.340256
-7423.584840	4058.197667	870.334961	-13.976969
-7423.584840	4058.197667	869.159180	-25.690605
-7423.584840	4058.197667	867.983398	-132.991150
-7423.584840	4058.197667	866.807617	-42.326092
-7423.584840	4058.197667	865.630859	-51.794594
-7423.584840	4058.197667	864.454102	93.370941
-7423.584840	4058.197667	863.277344	86.118500
-7423.584840	4058.197667	862.100586	224.342361
-7423.584840	4058.197667	860.922852	73.850502
-7423.584840	4058.197667	859.745117	27.930075
-7423.584840	4058.197667	858.567383	-40.707275
-7423.584840	4058.197667	857.389648	-82.078438
-7423.584840	4058.197667	856.210938	99.107864
-7423.584840	4058.197667	855.032227	-24.044760
-7423.584840	4058.197667	853.853516	27.626467
-7423.584840	4058.197667	852.674805	122.377090
-7423.584840	4058.197667	851.495117	201.191666
-7423.584840	4058.197667	850.315430	53.091789
-7423.584840	4058.197667	849.135742	29.781240
-7423.584840	4058.197667	847.956055	140.251862
-7423.584840	4058.197667	846.775391	250.661942
-7423.584840	4058.197667	845.595703	43.652851
-7423.584840	4058.197667	844.415039	-68.103081
-7423.584840	4058.197667	843.233398	64.879066
-7423.584840	4058.197667	842.052734	-62.737732
-7423.584840	4058.197667	840.871094	-47.631878
-7423.584840	4058.197667	839.689453	48.964451
-7423.584840	4058.197667	838.506836	-96.742805
-7423.584840	4058.197667	837.325195	-0.225316
-7423.584840	4058.197667	836.142578	50.973106
-7423.584840	4058.197667	834.959961	18.409401
-7423.584840	4058.197667	833.777344	107.986481
-7423.584840	4058.197667	832.593750	59.546856
-7423.584840	4058.197667	831.410156	-81.607353
-7423.584840	4058.197667	830.226563	166.110336
-7423.584840	4058.197667	829.042969	-194.304413
-7423.584840	4058.197667	827.858398	-57.444748
-7423.584840	4058.197667	826.673828	36.403629
-7423.584840	4058.197667	825.489258	123.407257
-7423.584840	4058.197667	824.304688	-49.365944
-7423.584840	4058.197667	823.120117	141.424377
-7423.584840	4058.197667	821.934570	-76.484978
-7423.584840	4058.197667	820.749023	-21.241934
-7423.584840	4058.197667	819.562500	146.776947
-7423.584840	4058.197667	818.376953	-39.508671
-7423.584840	4058.197667	817.190430	-79.131752
-7423.584840	4058.197667	816.003906	-93.965714
-7423.584840	4058.197667	814.817383	193.296585
-7423.584840	4058.197667	813.629883	126.504982
-7423.584840	4058.197667	812.442383	-7.905261
-7423.584840	4058.197667	811.254883	-16.113348
-7423.584840	4058.197667	810.067383	63.506199
-7423.584840	4058.197667	808.878906	-82.170547
-7423.584840	4058.197667	807.690430	161.746857
-7423.584840	4058.197667	806.501953	328.979584
-7423.584840	4058.197667	805.313477	126.953903
-7423.584840	4058.197667	804.124023	141.023270
-7423.584840	4058.197667	802.934570	-29.452036
-7423.584840	4058.197667	801.745117	-217.891464
-7423.584840	4058.197667	800.555664	-158.896118
-7423.584840	4058.197667	799.365234	-194.402695
-7423.584840	4058.197667	798.175781	-304.127258
-7423.584840	4058.197667	796.985352	1.974227
-7423.584840	4058.197667	795.793945	132.630646
-7423.584840	4058.197667	794.603516	103.667160
-7423.584840	4058.197667	793.412109	72.431320
-7423.584840	4058.197667	792.220703	-66.633293
-7423.584840	4058.197667	791.028320	115.402565
-7423.584840	4058.197667	789.836914	-12.478426
-7423.584840	4058.197667	788.644531	-21.392876
-7423.584840	4058.197667	787.452148	34.724037
-7423.584840	4058.197667	786.258789	-77.485695
-7423.584840	4058.197667	785.066406	-1.286177
-7423.584840	4058.197667	783.873047	-86.625366
-7423.584840	4058.197667	782.679688	197.966019
-7423.584840	4058.197667	781.485352	90.112213
-7423.584840	4058.197667	780.291992	-55.848980
-7423.584840	4058.197667	779.097656	-78.558228
-7423.584840	4058.197667	777.903320	-29.621277
-7423.584840	4058.197667	776.708008	102.119156
-7423.584840	4058.197667	775.512695	-171.557816
-7423.584840	4058.197667	774.318359	132.439560
-7423.584840	4058.197667	773.122070	6.500954
-7423.584840	4058.197667	771.926758	1.404645
-7423.584840	4058.197667	770.730469	-93.236702
-7423.584840	4058.197667	769.534180	-100.651566
-7423.584840	4058.197667	768.337891	10.416396
-7423.584840	4058.197667	767.141602	76.662987
-7423.584840	4058.197667	765.944336	-85.199203
-7423.584840	4058.197667	764.747070	61.394501
-7423.584840	4058.197667	763.549805	2.284453
-7423.584840	4058.197667	762.351563	-97.070793
-7423.584840	4058.197667	761.154297	85.001030
-7423.584840	4058.197667	759.956055	61.484844
-7423.584840	4058.197667	758.757813	232.170197
-7423.584840	4058.197667	757.558594	81.276222
-7423.584840	4058.197667	756.359375	-83.006058
-7423.584840	4058.197667	755.160156	82.964523
-7423.584840	4058.197667	753.960938	-83.601524
-7423.584840	4058.197667	752.761719	4.112769
-7423.584840	4058.197667	751.561523	-33.148293
-7423.584840	4058.197667	750.361328	27.643505
-7423.584840	4058.197667	749.160156	-165.762726
-7423.584840	4058.197667	747.959961	-27.093975
-7423.584840	4058.197667	746.758789	135.966690
-7423.584840	4058.197667	745.557617	-244.654800
-7423.584840	4058.197667	744.356445	-275.511566
-7423.584840	4058.197667	743.154297	132.247833
-7423.584840	4058.197667	741.952148	-27.925127
-7423.584840	4058.197667	740.750000	110.160637
-7423.584840	4058.197667	739.547852	163.560455
-7423.584840	4058.197667	738.344727	63.357044
-7423.584840	4058.197667	737.142578	98.816643
-7423.584840	4058.197667	735.939453	123.076591
-7423.584840	4058.197667	734.735352	11.628638
-7423.584840	4058.197667	733.532227	162.474747
-7423.584840	4058.197667	732.328125	330.970734
-7423.584840	4058.197667	731.124023	197.125290
-7423.584840	4058.197667	729.918945	218.782547
-7423.584840	4058.197667	728.714844	322.543579
-7423.584840	4058.197667	727.509766	412.869263
-7423.584840	4058.197667	726.303711	21.300243
-7423.584840	4058.197667	725.098633	280.215363
-7423.584840	4058.197667	723.892578	317.023407
-7423.584840	4058.197667	722.686523	278.305847
-7423.584840	4058.197667	721.480469	288.338928
-7423.584840	4058.197667	720.274414	89.813919
-7423.584840	4058.197667	719.067383	146.308929
-7423.584840	4058.197667	717.860352	140.635208
-7423.584840	4058.197667	716.653320	276.748718
-7423.584840	4058.197667	715.445313	253.180557
-7423.584840	4058.197667	714.238281	43.441547
-7423.584840	4058.197667	713.030273	59.662300
-7423.584840	4058.197667	711.821289	-77.005028
-7423.584840	4058.197667	710.613281	40.945885
-7423.584840	4058.197667	709.404297	-104.657379
-7423.584840	4058.197667	708.195313	48.519459
-7423.584840	4058.197667	706.986328	197.136612
-7423.584840	4058.197667	705.776367	301.373322
-7423.584840	4058.197667	704.566406	78.138290
-7423.584840	4058.197667	703.356445	67.220711
-7423.584840	4058.197667	702.146484	-23.355848
-7423.584840	4058.197667	700.935547	51.820107
-7423.584840	4058.197667	699.724609	76.062874
-7423.584840	4058.197667	698.513672	40.567970
-7423.584840	4058.197667	697.302734	199.416656
-7423.584840	4058.197667	696.090820	165.978287
-7423.584840	4058.197667	694.878906	302.512787
-7423.584840	4058.197667	693.666992	182.827057
-7423.584840	4058.197667	692.455078	71.950714
-7423.584840	4058.197667	691.242188	115.525429
-7423.584840	4058.197667	690.029297	344.342682
-7423.584840	4058.197667	688.816406	-79.934097
-7423.584840	4058.197667	687.602539	73.706818
-7423.584840	4058.197667	686.389648	46.414024
-7423.584840	4058.197667	685.175781	49.925373
-7423.584840	4058.197667	683.960938	90.835884
-7423.584840	4058.197667	682.747070	98.609993
-7423.584840	4058.197667	681.532227	176.811462
-7423.584840	4058.197667	680.317383	318.789032
-7423.584840	4058.197667	679.102539	255.844025
-7423.584840	4058.197667	677.886719	305.144165
-7423.584840	4058.197667	676.670898	367.566742
-7423.584840	4058.197667	675.455078	407.890656
-7423.584840	4058.197667	674.239258	377.725952
-7423.584840	4058.197667	673.022461	158.327133
-7423.584840	4058.197667	671.805664	449.206573
-7423.584840	4058.197667	670.588867	269.341522
-7423.584840	4058.197667	669.372070	282.952484
-7423.584840	4058.197667	668.154297	311.881744
-7423.584840	4058.197667	666.936523	72.645882
-7423.584840	4058.197667	665.718750	261.872650
-7423.584840	4058.197667	664.500977	-27.889259
-7423.584840	4058.197667	663.282227	-1.348376
-7423.584840	4058.197667	662.063477	132.711349
-7423.584840	4058.197667	660.844727	88.850426
-7423.584840	4058.197667	659.625000	58.120998
-7423.584840	4058.197667	658.405273	104.148514
-7423.584840	4058.197667	657.185547	169.849991
-7423.584840	4058.197667	655.965820	97.291878
-7423.584840	4058.197667	654.745117	195.755783
-7423.584840	4058.197667	653.525391	52.966774
-7423.584840	4058.197667	652.303711	-4.329165
-7423.584840	4058.197667	651.083008	-138.346481
-7423.584840	4058.197667	649.861328	100.115578
-7423.584840	4058.197667	648.640625	60.234642
-7423.584840	4058.197667	647.417969	77.265160
-7423.584840	4058.197667	646.196289	225.624069
-7423.584840	4058.197667	644.973633	130.882065
-7423.584840	4058.197667	643.750977	64.592148
-7423.584840	4058.197667	642.528320	66.127686
-7423.584840	4058.197667	641.305664	240.456818
-7423.584840	4058.197667	640.082031	270.313232
-7423.584840	4058.197667	638.858398	297.934723
-7423.584840	4058.197667	637.634766	297.088287
-7423.584840	4058.197667	636.410156	320.253723
-7423.584840	4058.197667	635.185547	201.324265
-7423.584840	4058.197667	633.960938	222.255493
-7423.584840	4058.197667	632.736328	284.655365
-7423.584840	4058.197667	631.510742	268.374817
-7423.584840	4058.197667	630.285156	238.975189
-7423.584840	4058.197667	629.059570	526.119202
-7423.584840	4058.197667	627.833984	496.632751
-7423.584840	4058.197667	626.607422	349.298370
-7423.584840	4058.197667	625.380859	164.917862
-7423.584840	4058.197667	624.154297	46.037827
-7423.584840	4058.197667	622.927734	308.837738
-7423.584840	4058.197667	621.700195	19.880491
-7423.584840	4058.197667	620.472656	5.700442
-7423.584840	4058.197667	619.245117	144.078674
-7423.584840	4058.197667	618.016602	166.902390
-7423.584840	4058.197667	616.788086	-6.355515
-7423.584840	4058.197667	615.559570	-327.649231
-7423.584840	4058.197667	614.331055	-97.881157
-7423.584840	4058.197667	613.101563	9.868198
-7423.584840	4058.197667	611.872070	-87.031670
-7423.584840	4058.197667	610.642578	-192.591507
-7423.584840	4058.197667	609.413086	182.736557
-7423.584840	4058.197667	608.182617	-35.938435
-7423.584840	4058.197667	606.952148	-108.798660
-7423.584840	4058.197667	605.721680	44.516304
-7423.584840	4058.197667	604.491211	-23.956352
-7423.584840	4058.197667	603.259766	109.742165
-7423.584840	4058.197667	602.028320	-28.217764
-7423.584840	4058.197667	600.796875	-142.201233
-7423.584840	4058.197667	599.564453	-47.601898
-7423.584840	4058.197667	598.332031	40.468407
-7423.584840	4058.197667	597.099609	-327.406158
-7423.584840	4058.197667	595.867188	-106.849396
-7423.584840	4058.197667	594.633789	-66.482361
-7423.584840	4058.197667	593.400391	17.294983
-7423.584840	4058.197667	592.166992	-144.055206
-7423.584840	4058.197667	590.933594	48.215359
-7423.584840	4058.197667	589.699219	-32.768093
-7423.584840	4058.197667	588.464844	191.995758
-7423.584840	4058.197667	587.230469	-190.168579
-7423.584840	4058.197667	585.995117	38.956047
-7423.584840	4058.197667	584.760742	83.882469
-7423.584840	4058.197667	583.525391	-57.439590
-7423.584840	4058.197667	582.289063	-207.312439
-7423.584840	4058.197667	581.053711	-101.580910
-7423.584840	4058.197667	579.817383	-60.777420
-7423.584840	4058.197667	578.581055	-35.079639
-7423.584840	4058.197667	577.343750	103.181114
-7423.584840	4058.197667	576.107422	-0.835496
-7423.584840	4058.197667	574.870117	38.003540
-7423.584840	4058.197667	573.631836	33.645939
-7423.584840	4058.197667	572.394531	-50.624954
-7423.584840	4058.197667	571.156250	7.867158
-7423.584840	4058.197667	569.917969	113.951057
-7423.584840	4058.197667	568.679688	40.747105
-7423.584840	4058.197667	567.440430	-237.548248
-7423.584840	4058.197667	566.202148	-21.099600
-7423.584840	4058.197667	564.961914	-141.480011
-7423.584840	4058.197667	563.722656	27.538273
-7423.584840	4058.197667	562.482422	-32.193787
-7423.584840	4058.197667	561.243164	182.222061
-7423.584840	4058.197667	560.001953	60.107098
-7423.584840	4058.197667	558.761719	9.316071
-7423.584840	4058.197667	557.520508	-118.984138
-7423.584840	4058.197667	556.279297	-104.840706
-7423.584840	4058.197667	555.038086	27.947588
-7423.584840	4058.197667	553.795898	18.556286
-7423.584840	4058.197667	552.554688	-139.384232
-7423.584840	4058.197667	551.311523	64.729065
-7423.584840	4058.197667	550.069336	159.034195
-7423.584840	4058.197667	548.826172	113.458710
-7423.584840	4058.197667	547.583984	72.321609
-7423.584840	4058.197667	546.339844	302.495392
-7423.584840	4058.197667	545.096680	117.404907
-7423.584840	4058.197667	543.852539	-129.873291
-7423.584840	4058.197667	542.608398	126.365204
-7423.584840	4058.197667	541.364258	-19.498201
-7423.584840	4058.197667	540.119141	135.810242
-7423.584840	4058.197667	538.875000	-33.385330
-7423.584840	4058.197667	537.628906	70.539246
-7423.584840	4058.197667	536.383789	17.706596
-7423.584840	4058.197667	535.137695	29.469648
-7423.584840	4058.197667	533.892578	82.162216
-7423.584840	4058.197667	532.645508	83.435791
-7423.584840	4058.197667	531.399414	-33.224262
-7423.584840	4058.197667	530.152344	120.724014
-7423.584840	4058.197667	528.905273	388.466583
-7423.584840	4058.197667	527.658203	302.259064
-7423.584840	4058.197667	526.410156	276.283813
-7423.584840	4058.197667	525.163086	224.723190
-7423.584840	4058.197667	523.914063	297.673676
-7423.584840	4058.197667	522.666016	109.231079
-7423.584840	4058.197667	521.416992	197.455811
-7423.584840	4058.197667	520.167969	311.494324
-7423.584840	4058.197667	518.918945	292.815491
-7423.584840	4058.197667	517.669922	317.117554
-7423.584840	4058.197667	516.419922	138.143372
-7423.584840	4058.197667	515.169922	6.481937
-7423.584840	4058.197667	513.919922	228.154358
-7423.584840	4058.197667	512.668945	389.961121
-7423.584840	4058.197667	511.417969	391.389923
-7423.584840	4058.197667	510.166992	243.236832
-7423.584840	4058.197667	508.916016	450.257813
-7423.584840	4058.197667	507.664063	298.159485
-7423.584840	4058.197667	506.412109	242.447098
-7423.584840	4058.197667	505.160156	240.319489
-7423.584840	4058.197667	503.907227	300.289795
-7423.584840	4058.197667	502.655273	667.958130
-7423.584840	4058.197667	501.402344	414.135132
-7423.584840	4058.197667	500.148438	547.018372
-7423.584840	4058.197667	498.895508	515.594604
-7423.584840	4058.197667	497.641602	437.359039
-7423.584840	4058.197667	496.387695	491.573669
-7423.584840	4058.197667	495.132813	317.622101
-7423.584840	4058.197667	493.878906	604.556885
-7423.584840	4058.197667	492.624023	537.505249
-7423.584840	4058.197667	491.368164	813.842041
-7423.584840	4058.197667	490.113281	704.360901
-7423.584840	4058.197667	488.857422	603.558899
-7423.584840	4058.197667	487.601563	801.179321
-7423.584840	4058.197667	486.344727	809.234802
-7423.584840	4058.197667	485.088867	610.795715
-7423.584840	4058.197667	483.832031	661.648987
-7423.584840	4058.197667	482.575195	744.492615
-7423.584840	4058.197667	481.317383	672.018188
-7423.584840	4058.197667	480.059570	735.825500
-7423.584840	4058.197667	478.801758	776.270081
-7423.584840	4058.197667	477.543945	827.391052
-7423.584840	4058.197667	476.285156	918.951355
-7423.584840	4058.197667	475.027344	970.119019
-7423.584840	4058.197667	473.767578	713.113953
-7423.584840	4058.197667	472.508789	942.887939
-7423.584840	4058.197667	471.249023	1113.105957
-7423.584840	4058.197667	469.989258	945.527161
-7423.584840	4058.197667	468.729492	826.876038
-7423.584840	4058.197667	467.469727	903.614868
-7423.584840	4058.197667	466.208984	950.601013
-7423.584840	4058.197667	464.948242	1067.586426
-7423.584840	4058.197667	463.686523	1118.724609
-7423.584840	4058.197667	462.425781	1320.418457
-7423.584840	4058.197667	461.164063	1002.354614
-7423.584840	4058.197667	459.901367	1097.873047
-7423.584840	4058.197667	458.639648	1212.358276
-7423.584840	4058.197667	457.376953	1199.547119
-7423.584840	4058.197667	456.114258	1104.006714
-7423.584840	4058.197667	454.851563	1413.068604
-7423.584840	4058.197667	453.587891	1446.522461
-7423.584840	4058.197667	452.324219	1206.645996
-7423.584840	4058.197667	451.060547	1443.121338
-7423.584840	4058.197667	449.796875	1270.792969
-7423.584840	4058.197667	448.532227	1449.692627
-7423.584840	4058.197667	447.267578	1344.798584
-7423.584840	4058.197667	446.002930	1375.140869
-7423.584840	4058.197667	444.737305	1428.524292
-7423.584840	4058.197667	443.471680	1464.738037
-7423.584840	4058.197667	442.206055	1403.440186
-7423.584840	4058.197667	440.940430	1551.153809
-7423.584840	4058.197667	439.673828	1370.982788
-7423.584840	4058.197667	438.407227	1731.442383
-7423.584840	4058.197667	437.140625	1548.577393
-7423.584840	4058.197667	435.873047	1675.888550
-7423.584840	4058.197667	434.605469	1743.667725
-7423.584840	4058.197667	433.337891	1724.492065
-7423.584840	4058.197667	432.070313	1726.026245
-7423.584840	4058.197667	430.801758	1682.830078
-7423.584840	4058.197667	429.533203	1850.155884
-7423.584840	4058.197667	428.264648	1702.693726
-7423.584840	4058.197667	426.996094	1736.140015
-7423.584840	4058.197667	425.726563	1853.381470
-7423.584840	4058.197667	424.457031	1622.262329
-7423.584840	4058.197667	423.186523	1820.547729
-7423.584840	4058.197667	421.916992	1832.757568
-7423.584840	4058.197667	420.646484	1848.551880
-7423.584840	4058.197667	419.375977	2057.427734
-7423.584840	4058.197667	418.104492	1903.403564
-7423.584840	4058.197667	416.833008	1973.966309
-7423.584840	4058.197667	415.561523	2157.401611
-7423.584840	4058.197667	414.290039	2081.192139
-7423.584840	4058.197667	413.017578	2042.074097
-7423.584840	4058.197667	411.746094	1949.567383
-7423.584840	4058.197667	410.472656	2203.158691
-7423.584840	4058.197667	409.200195	2028.998779
-7423.584840	4058.197667	407.926758	1967.463867
-7423.584840	4058.197667	406.653320	1934.399292
-7423.584840	4058.197667	405.379883	2112.523926
-7423.584840	4058.197667	404.105469	2066.873291
-7423.584840	4058.197667	402.831055	1906.759155
-7423.584840	4058.197667	401.556641	1898.849609
-7423.584840	4058.197667	400.282227	2038.805176
-7423.584840	4058.197667	399.006836	2120.816162
-7423.584840	4058.197667	397.731445	2033.692993
-7423.584840	4058.197667	396.456055	2127.806152
-7423.584840	4058.197667	395.179688	1994.025757
-7423.584840	4058.197667	393.903320	1965.850220
-7423.584840	4058.197667	392.626953	2124.918701
-7423.584840	4058.197667	391.350586	2100.101318
-7423.584840	4058.197667	390.073242	2054.885254
-7423.584840	4058.197667	388.795898	2102.379883
-7423.584840	4058.197667	387.518555	2144.032959
-7423.584840	4058.197667	386.240234	1989.218506
-7423.584840	4058.197667	384.961914	1970.906006
-7423.584840	4058.197667	383.683594	2206.164063
-7423.584840	4058.197667	382.405273	2006.298584
-7423.584840	4058.197667	381.125977	2038.907471
-7423.584840	4058.197667	379.846680	1870.822998
-7423.584840	4058.197667	378.567383	1945.465576
-7423.584840	4058.197667	377.287109	1771.240234
-7423.584840	4058.197667	376.006836	2038.094971
-7423.584840	4058.197667	374.726563	1899.271606
-7423.584840	4058.197667	373.446289	1998.517212
-7423.584840	4058.197667	372.165039	1781.985474
-7423.584840	4058.197667	370.883789	1780.343628
-7423.584840	4058.197667	369.602539	1957.882446
-7423.584840	4058.197667	368.320313	1825.863892
-7423.584840	4058.197667	367.039063	2031.534790
-7423.584840	4058.197667	365.755859	1785.671753
-7423.584840	4058.197667	364.473633	1843.871826
-7423.584840	4058.197667	363.190430	1901.225830
-7423.584840	4058.197667	361.907227	1697.039063
-7423.584840	4058.197667	360.624023	1821.429810
-7423.584840	4058.197667	359.340820	1671.695679
-7423.584840	4058.197667	358.056641	1773.033813
-7423.584840	4058.197667	356.772461	1898.151123
-7423.584840	4058.197667	355.487305	1594.845459
-7423.584840	4058.197667	354.202148	1371.536255
-7423.584840	4058.197667	352.916992	1507.092896
-7423.584840	4058.197667	351.631836	1553.618164
-7423.584840	4058.197667	350.346680	1600.572021
-7423.584840	4058.197667	349.060547	1456.340332
-7423.584840	4058.197667	347.774414	1412.278442
-7423.584840	4058.197667	346.487305	1210.223633
-7423.584840	4058.197667	345.200195	1284.867920
-7423.584840	4058.197667	343.913086	1226.364990
-7423.584840	4058.197667	342.625977	1190.587036
-7423.584840	4058.197667	341.338867	923.886292
-7423.584840	4058.197667	340.050781	912.364807
-7423.584840	4058.197667	338.762695	705.094849
-7423.584840	4058.197667	337.473633	839.851990
-7423.584840	4058.197667	336.184570	537.797852
-7423.584840	4058.197667	334.895508	627.355164
-7423.584840	4058.197667	333.606445	572.703186
-7423.584840	4058.197667	332.317383	541.881592
-7423.584840	4058.197667	331.027344	739.990479
-7423.584840	4058.197667	329.736328	629.569336
-7423.584840	4058.197667	328.446289	395.512085
-7423.584840	4058.197667	327.155273	468.692505
-7423.584840	4058.197667	325.864258	220.899490
-7423.584840	4058.197667	324.573242	124.668625
-7423.584840	4058.197667	323.281250	175.461060
-7423.584840	4058.197667	321.989258	4.497272
-7423.584840	4058.197667	320.697266	50.797695
-7423.584840	4058.197667	319.405273	117.386192
-7423.584840	4058.197667	318.112305	-164.528320
-7423.584840	4058.197667	316.819336	-57.962673
-7423.584840	4058.197667	315.526367	-4.027748
-7423.584840	4058.197667	314.232422	27.983030
-7423.584840	4058.197667	312.938477	23.634277
-7423.584840	4058.197667	311.644531	131.658569
-7423.584840	4058.197667	310.349609	-92.848732
-7423.584840	4058.197667	309.054688	-203.215454
-7423.584840	4058.197667	307.759766	-110.832756
-7423.584840	4058.197667	306.464844	-231.252747
-7423.584840	4058.197667	305.168945	-27.740168
-7423.584840	4058.197667	303.873047	-161.251617
-7423.584840	4058.197667	302.577148	14.442828
-7423.584840	4058.197667	301.281250	174.894363
-7423.584840	4058.197667	299.984375	530.147278
