#X		#Y		#Wave		#Intensity
-6462.542766	4746.343167	1999.946289	60.828560
-6462.542766	4746.343167	1998.981445	-38.746563
-6462.542766	4746.343167	1998.017578	37.062672
-6462.542766	4746.343167	1997.052734	3.773968
-6462.542766	4746.343167	1996.088867	-86.519630
-6462.542766	4746.343167	1995.124023	38.705750
-6462.542766	4746.343167	1994.159180	12.774799
-6462.542766	4746.343167	1993.193359	108.162445
-6462.542766	4746.343167	1992.228516	-98.560860
-6462.542766	4746.343167	1991.262695	14.087427
-6462.542766	4746.343167	1990.296875	-11.925176
-6462.542766	4746.343167	1989.331055	-3.309267
-6462.542766	4746.343167	1988.365234	-68.938560
-6462.542766	4746.343167	1987.398438	36.107372
-6462.542766	4746.343167	1986.432617	17.441364
-6462.542766	4746.343167	1985.465820	97.666130
-6462.542766	4746.343167	1984.499023	-5.096028
-6462.542766	4746.343167	1983.532227	40.463192
-6462.542766	4746.343167	1982.565430	-7.917766
-6462.542766	4746.343167	1981.597656	116.656136
-6462.542766	4746.343167	1980.629883	-57.738712
-6462.542766	4746.343167	1979.662109	-66.603188
-6462.542766	4746.343167	1978.694336	-13.742864
-6462.542766	4746.343167	1977.726563	78.587914
-6462.542766	4746.343167	1976.758789	-9.326156
-6462.542766	4746.343167	1975.790039	28.649023
-6462.542766	4746.343167	1974.821289	-39.505173
-6462.542766	4746.343167	1973.852539	15.710988
-6462.542766	4746.343167	1972.883789	68.431007
-6462.542766	4746.343167	1971.915039	27.408230
-6462.542766	4746.343167	1970.945313	55.431885
-6462.542766	4746.343167	1969.975586	-39.825294
-6462.542766	4746.343167	1969.005859	64.596046
-6462.542766	4746.343167	1968.036133	45.754837
-6462.542766	4746.343167	1967.066406	-64.248726
-6462.542766	4746.343167	1966.096680	20.395237
-6462.542766	4746.343167	1965.125977	40.964813
-6462.542766	4746.343167	1964.155273	-73.915665
-6462.542766	4746.343167	1963.184570	114.077057
-6462.542766	4746.343167	1962.213867	1.681252
-6462.542766	4746.343167	1961.242188	51.759418
-6462.542766	4746.343167	1960.271484	30.458332
-6462.542766	4746.343167	1959.299805	58.367207
-6462.542766	4746.343167	1958.328125	137.920105
-6462.542766	4746.343167	1957.356445	-16.192623
-6462.542766	4746.343167	1956.384766	58.425652
-6462.542766	4746.343167	1955.412109	-24.322153
-6462.542766	4746.343167	1954.439453	1.110514
-6462.542766	4746.343167	1953.467773	1.961100
-6462.542766	4746.343167	1952.495117	10.182250
-6462.542766	4746.343167	1951.521484	57.706173
-6462.542766	4746.343167	1950.548828	46.268597
-6462.542766	4746.343167	1949.575195	56.937126
-6462.542766	4746.343167	1948.601563	57.783123
-6462.542766	4746.343167	1947.627930	-10.101355
-6462.542766	4746.343167	1946.654297	-90.228996
-6462.542766	4746.343167	1945.680664	-15.732366
-6462.542766	4746.343167	1944.706055	-86.010429
-6462.542766	4746.343167	1943.732422	-82.669876
-6462.542766	4746.343167	1942.757813	-15.563789
-6462.542766	4746.343167	1941.783203	41.713055
-6462.542766	4746.343167	1940.807617	79.359581
-6462.542766	4746.343167	1939.833008	-15.361856
-6462.542766	4746.343167	1938.857422	-85.537987
-6462.542766	4746.343167	1937.881836	28.080349
-6462.542766	4746.343167	1936.906250	24.074097
-6462.542766	4746.343167	1935.930664	47.016376
-6462.542766	4746.343167	1934.955078	-42.690350
-6462.542766	4746.343167	1933.978516	-7.493202
-6462.542766	4746.343167	1933.001953	47.279022
-6462.542766	4746.343167	1932.025391	-3.203667
-6462.542766	4746.343167	1931.048828	5.065393
-6462.542766	4746.343167	1930.072266	-101.650055
-6462.542766	4746.343167	1929.094727	26.502159
-6462.542766	4746.343167	1928.118164	132.602524
-6462.542766	4746.343167	1927.140625	40.609707
-6462.542766	4746.343167	1926.163086	124.675781
-6462.542766	4746.343167	1925.184570	52.283043
-6462.542766	4746.343167	1924.207031	-24.963467
-6462.542766	4746.343167	1923.228516	0.443787
-6462.542766	4746.343167	1922.250000	35.618965
-6462.542766	4746.343167	1921.271484	-9.813437
-6462.542766	4746.343167	1920.292969	69.317467
-6462.542766	4746.343167	1919.314453	26.348322
-6462.542766	4746.343167	1918.334961	15.133972
-6462.542766	4746.343167	1917.355469	-0.951726
-6462.542766	4746.343167	1916.375977	65.939323
-6462.542766	4746.343167	1915.396484	37.662792
-6462.542766	4746.343167	1914.416992	-27.186422
-6462.542766	4746.343167	1913.436523	64.075386
-6462.542766	4746.343167	1912.457031	-61.702084
-6462.542766	4746.343167	1911.476563	-21.652607
-6462.542766	4746.343167	1910.496094	162.195007
-6462.542766	4746.343167	1909.515625	2.366783
-6462.542766	4746.343167	1908.534180	20.467815
-6462.542766	4746.343167	1907.552734	116.520767
-6462.542766	4746.343167	1906.572266	-4.225173
-6462.542766	4746.343167	1905.590820	16.316488
-6462.542766	4746.343167	1904.608398	31.985006
-6462.542766	4746.343167	1903.626953	-159.257278
-6462.542766	4746.343167	1902.644531	-41.334133
-6462.542766	4746.343167	1901.663086	40.050018
-6462.542766	4746.343167	1900.680664	-26.998299
-6462.542766	4746.343167	1899.698242	30.035934
-6462.542766	4746.343167	1898.714844	-5.362806
-6462.542766	4746.343167	1897.732422	24.906900
-6462.542766	4746.343167	1896.749023	11.409120
-6462.542766	4746.343167	1895.765625	-6.941261
-6462.542766	4746.343167	1894.782227	-66.594109
-6462.542766	4746.343167	1893.798828	0.122299
-6462.542766	4746.343167	1892.814453	-49.787300
-6462.542766	4746.343167	1891.831055	-75.387077
-6462.542766	4746.343167	1890.846680	-54.837063
-6462.542766	4746.343167	1889.862305	-53.715332
-6462.542766	4746.343167	1888.877930	78.488922
-6462.542766	4746.343167	1887.892578	-29.624584
-6462.542766	4746.343167	1886.908203	-16.369335
-6462.542766	4746.343167	1885.922852	-37.082836
-6462.542766	4746.343167	1884.937500	-43.233574
-6462.542766	4746.343167	1883.952148	13.673384
-6462.542766	4746.343167	1882.965820	-7.030807
-6462.542766	4746.343167	1881.980469	57.122810
-6462.542766	4746.343167	1880.994141	84.895607
-6462.542766	4746.343167	1880.007813	47.228760
-6462.542766	4746.343167	1879.021484	99.222893
-6462.542766	4746.343167	1878.035156	37.343628
-6462.542766	4746.343167	1877.047852	-26.934811
-6462.542766	4746.343167	1876.061523	104.953918
-6462.542766	4746.343167	1875.074219	14.054400
-6462.542766	4746.343167	1874.086914	131.360519
-6462.542766	4746.343167	1873.098633	-10.335162
-6462.542766	4746.343167	1872.111328	-9.215802
-6462.542766	4746.343167	1871.123047	83.832748
-6462.542766	4746.343167	1870.135742	101.862915
-6462.542766	4746.343167	1869.147461	-42.144688
-6462.542766	4746.343167	1868.158203	-12.013285
-6462.542766	4746.343167	1867.169922	-10.903569
-6462.542766	4746.343167	1866.180664	19.206553
-6462.542766	4746.343167	1865.192383	17.888809
-6462.542766	4746.343167	1864.203125	57.641117
-6462.542766	4746.343167	1863.213867	-52.392483
-6462.542766	4746.343167	1862.223633	6.672834
-6462.542766	4746.343167	1861.234375	36.736942
-6462.542766	4746.343167	1860.244141	-85.313103
-6462.542766	4746.343167	1859.253906	48.542477
-6462.542766	4746.343167	1858.263672	-46.924553
-6462.542766	4746.343167	1857.273438	28.955761
-6462.542766	4746.343167	1856.282227	-47.181522
-6462.542766	4746.343167	1855.291992	67.253204
-6462.542766	4746.343167	1854.300781	-4.049089
-6462.542766	4746.343167	1853.309570	-12.641352
-6462.542766	4746.343167	1852.317383	24.565557
-6462.542766	4746.343167	1851.326172	-80.446625
-6462.542766	4746.343167	1850.333984	-38.432522
-6462.542766	4746.343167	1849.342773	51.746120
-6462.542766	4746.343167	1848.350586	19.034132
-6462.542766	4746.343167	1847.357422	44.128067
-6462.542766	4746.343167	1846.365234	66.799026
-6462.542766	4746.343167	1845.372070	34.082623
-6462.542766	4746.343167	1844.379883	-70.838150
-6462.542766	4746.343167	1843.386719	31.236605
-6462.542766	4746.343167	1842.393555	22.584816
-6462.542766	4746.343167	1841.399414	-96.732018
-6462.542766	4746.343167	1840.406250	-35.620941
-6462.542766	4746.343167	1839.412109	39.886944
-6462.542766	4746.343167	1838.417969	-24.090805
-6462.542766	4746.343167	1837.423828	75.408264
-6462.542766	4746.343167	1836.429688	78.726013
-6462.542766	4746.343167	1835.434570	21.959782
-6462.542766	4746.343167	1834.440430	37.281010
-6462.542766	4746.343167	1833.445313	-45.896431
-6462.542766	4746.343167	1832.450195	29.452301
-6462.542766	4746.343167	1831.454102	-60.915558
-6462.542766	4746.343167	1830.458984	-60.032360
-6462.542766	4746.343167	1829.462891	-59.160313
-6462.542766	4746.343167	1828.466797	104.885864
-6462.542766	4746.343167	1827.470703	100.907753
-6462.542766	4746.343167	1826.474609	99.319489
-6462.542766	4746.343167	1825.478516	73.737366
-6462.542766	4746.343167	1824.481445	14.581656
-6462.542766	4746.343167	1823.484375	65.722992
-6462.542766	4746.343167	1822.487305	25.745686
-6462.542766	4746.343167	1821.490234	-4.641436
-6462.542766	4746.343167	1820.493164	-1.482231
-6462.542766	4746.343167	1819.495117	16.037329
-6462.542766	4746.343167	1818.498047	-50.293804
-6462.542766	4746.343167	1817.500000	77.365463
-6462.542766	4746.343167	1816.500977	63.697075
-6462.542766	4746.343167	1815.502930	14.114576
-6462.542766	4746.343167	1814.504883	-35.461819
-6462.542766	4746.343167	1813.505859	-13.243035
-6462.542766	4746.343167	1812.506836	-36.503803
-6462.542766	4746.343167	1811.507813	-69.336540
-6462.542766	4746.343167	1810.508789	3.061603
-6462.542766	4746.343167	1809.508789	10.856606
-6462.542766	4746.343167	1808.508789	13.854127
-6462.542766	4746.343167	1807.508789	-4.675452
-6462.542766	4746.343167	1806.508789	-68.618240
-6462.542766	4746.343167	1805.508789	6.033457
-6462.542766	4746.343167	1804.508789	-29.247335
-6462.542766	4746.343167	1803.507813	83.555161
-6462.542766	4746.343167	1802.506836	-4.292364
-6462.542766	4746.343167	1801.505859	-13.330798
-6462.542766	4746.343167	1800.504883	27.749083
-6462.542766	4746.343167	1799.502930	78.344604
-6462.542766	4746.343167	1798.501953	145.611221
-6462.542766	4746.343167	1797.500000	-23.353558
-6462.542766	4746.343167	1796.498047	41.491196
-6462.542766	4746.343167	1795.496094	127.760384
-6462.542766	4746.343167	1794.493164	49.456516
-6462.542766	4746.343167	1793.491211	45.071613
-6462.542766	4746.343167	1792.488281	83.574875
-6462.542766	4746.343167	1791.485352	91.068619
-6462.542766	4746.343167	1790.482422	8.005631
-6462.542766	4746.343167	1789.478516	53.593445
-6462.542766	4746.343167	1788.475586	122.967072
-6462.542766	4746.343167	1787.471680	47.041374
-6462.542766	4746.343167	1786.467773	87.787643
-6462.542766	4746.343167	1785.463867	-50.022694
-6462.542766	4746.343167	1784.459961	-42.623104
-6462.542766	4746.343167	1783.455078	50.416527
-6462.542766	4746.343167	1782.450195	43.487236
-6462.542766	4746.343167	1781.445313	86.493996
-6462.542766	4746.343167	1780.440430	62.882080
-6462.542766	4746.343167	1779.435547	77.305244
-6462.542766	4746.343167	1778.429688	15.635430
-6462.542766	4746.343167	1777.424805	94.201859
-6462.542766	4746.343167	1776.418945	72.916656
-6462.542766	4746.343167	1775.413086	65.878265
-6462.542766	4746.343167	1774.406250	11.317222
-6462.542766	4746.343167	1773.400391	28.010139
-6462.542766	4746.343167	1772.393555	89.793602
-6462.542766	4746.343167	1771.386719	49.454109
-6462.542766	4746.343167	1770.379883	54.211613
-6462.542766	4746.343167	1769.373047	61.323906
-6462.542766	4746.343167	1768.365234	58.924534
-6462.542766	4746.343167	1767.358398	49.394791
-6462.542766	4746.343167	1766.350586	-71.622986
-6462.542766	4746.343167	1765.342773	65.862892
-6462.542766	4746.343167	1764.334961	39.689812
-6462.542766	4746.343167	1763.326172	58.546196
-6462.542766	4746.343167	1762.318359	46.571320
-6462.542766	4746.343167	1761.309570	86.711823
-6462.542766	4746.343167	1760.300781	96.022713
-6462.542766	4746.343167	1759.291016	81.625450
-6462.542766	4746.343167	1758.282227	154.841095
-6462.542766	4746.343167	1757.272461	78.844208
-6462.542766	4746.343167	1756.262695	-4.242024
-6462.542766	4746.343167	1755.252930	-2.107765
-6462.542766	4746.343167	1754.243164	75.732857
-6462.542766	4746.343167	1753.233398	-4.989180
-6462.542766	4746.343167	1752.222656	42.036480
-6462.542766	4746.343167	1751.211914	-15.033191
-6462.542766	4746.343167	1750.201172	60.318203
-6462.542766	4746.343167	1749.190430	45.788208
-6462.542766	4746.343167	1748.179688	97.429848
-6462.542766	4746.343167	1747.167969	134.854202
-6462.542766	4746.343167	1746.156250	-12.047560
-6462.542766	4746.343167	1745.144531	-40.793922
-6462.542766	4746.343167	1744.132813	-3.413645
-6462.542766	4746.343167	1743.121094	78.803291
-6462.542766	4746.343167	1742.108398	57.088253
-6462.542766	4746.343167	1741.095703	56.609867
-6462.542766	4746.343167	1740.083008	1.834504
-6462.542766	4746.343167	1739.070313	-45.857395
-6462.542766	4746.343167	1738.057617	-41.645203
-6462.542766	4746.343167	1737.043945	87.558586
-6462.542766	4746.343167	1736.030273	-52.143959
-6462.542766	4746.343167	1735.016602	-26.762531
-6462.542766	4746.343167	1734.002930	-57.982841
-6462.542766	4746.343167	1732.989258	-27.927370
-6462.542766	4746.343167	1731.974609	-52.099720
-6462.542766	4746.343167	1730.959961	-36.226120
-6462.542766	4746.343167	1729.945313	47.937412
-6462.542766	4746.343167	1728.930664	47.269394
-6462.542766	4746.343167	1727.916016	-0.506696
-6462.542766	4746.343167	1726.900391	104.741707
-6462.542766	4746.343167	1725.885742	-8.962403
-6462.542766	4746.343167	1724.870117	37.384521
-6462.542766	4746.343167	1723.853516	-29.240406
-6462.542766	4746.343167	1722.837891	21.767927
-6462.542766	4746.343167	1721.822266	51.574295
-6462.542766	4746.343167	1720.805664	100.164719
-6462.542766	4746.343167	1719.789063	64.083885
-6462.542766	4746.343167	1718.772461	-16.659040
-6462.542766	4746.343167	1717.754883	36.571327
-6462.542766	4746.343167	1716.738281	-4.218850
-6462.542766	4746.343167	1715.720703	121.787483
-6462.542766	4746.343167	1714.703125	144.383881
-6462.542766	4746.343167	1713.685547	-6.820149
-6462.542766	4746.343167	1712.667969	-106.326202
-6462.542766	4746.343167	1711.649414	-93.132225
-6462.542766	4746.343167	1710.630859	-56.486858
-6462.542766	4746.343167	1709.612305	-109.037666
-6462.542766	4746.343167	1708.593750	89.451576
-6462.542766	4746.343167	1707.575195	126.001503
-6462.542766	4746.343167	1706.555664	21.809427
-6462.542766	4746.343167	1705.536133	-21.391769
-6462.542766	4746.343167	1704.516602	-5.981338
-6462.542766	4746.343167	1703.497070	-11.683986
-6462.542766	4746.343167	1702.477539	59.935493
-6462.542766	4746.343167	1701.457031	47.166153
-6462.542766	4746.343167	1700.437500	-24.170513
-6462.542766	4746.343167	1699.416992	-27.574669
-6462.542766	4746.343167	1698.395508	-59.091358
-6462.542766	4746.343167	1697.375000	-8.664403
-6462.542766	4746.343167	1696.354492	46.413212
-6462.542766	4746.343167	1695.333008	26.567207
-6462.542766	4746.343167	1694.311523	-33.059235
-6462.542766	4746.343167	1693.290039	-80.976936
-6462.542766	4746.343167	1692.267578	-56.383739
-6462.542766	4746.343167	1691.246094	-31.807802
-6462.542766	4746.343167	1690.223633	-51.676949
-6462.542766	4746.343167	1689.201172	-71.549118
-6462.542766	4746.343167	1688.178711	-124.143135
-6462.542766	4746.343167	1687.155273	-151.026733
-6462.542766	4746.343167	1686.132813	6.653588
-6462.542766	4746.343167	1685.109375	-102.016136
-6462.542766	4746.343167	1684.085938	36.889595
-6462.542766	4746.343167	1683.062500	9.956896
-6462.542766	4746.343167	1682.039063	132.427887
-6462.542766	4746.343167	1681.014648	72.790459
-6462.542766	4746.343167	1679.990234	69.171562
-6462.542766	4746.343167	1678.965820	161.201019
-6462.542766	4746.343167	1677.941406	-29.060436
-6462.542766	4746.343167	1676.916992	-107.312820
-6462.542766	4746.343167	1675.891602	33.635330
-6462.542766	4746.343167	1674.866211	46.301403
-6462.542766	4746.343167	1673.840820	14.668984
-6462.542766	4746.343167	1672.815430	17.996805
-6462.542766	4746.343167	1671.790039	-11.303084
-6462.542766	4746.343167	1670.763672	75.871651
-6462.542766	4746.343167	1669.737305	-67.567772
-6462.542766	4746.343167	1668.710938	3.270193
-6462.542766	4746.343167	1667.684570	1.902097
-6462.542766	4746.343167	1666.658203	56.392097
-6462.542766	4746.343167	1665.630859	108.524635
-6462.542766	4746.343167	1664.603516	53.598892
-6462.542766	4746.343167	1663.576172	68.478348
-6462.542766	4746.343167	1662.548828	27.525021
-6462.542766	4746.343167	1661.520508	-4.119252
-6462.542766	4746.343167	1660.493164	36.320530
-6462.542766	4746.343167	1659.464844	37.219658
-6462.542766	4746.343167	1658.436523	284.465729
-6462.542766	4746.343167	1657.408203	76.179550
-6462.542766	4746.343167	1656.378906	107.254173
-6462.542766	4746.343167	1655.350586	203.351837
-6462.542766	4746.343167	1654.321289	27.697653
-6462.542766	4746.343167	1653.291992	114.474907
-6462.542766	4746.343167	1652.261719	245.317841
-6462.542766	4746.343167	1651.232422	97.597221
-6462.542766	4746.343167	1650.202148	119.322807
-6462.542766	4746.343167	1649.171875	131.756500
-6462.542766	4746.343167	1648.141602	176.656570
-6462.542766	4746.343167	1647.111328	77.749519
-6462.542766	4746.343167	1646.080078	150.458420
-6462.542766	4746.343167	1645.049805	158.228760
-6462.542766	4746.343167	1644.018555	175.261948
-6462.542766	4746.343167	1642.987305	83.371384
-6462.542766	4746.343167	1641.955078	181.496994
-6462.542766	4746.343167	1640.923828	117.434624
-6462.542766	4746.343167	1639.891602	134.452545
-6462.542766	4746.343167	1638.859375	65.787277
-6462.542766	4746.343167	1637.827148	149.943924
-6462.542766	4746.343167	1636.794922	146.110413
-6462.542766	4746.343167	1635.761719	167.731049
-6462.542766	4746.343167	1634.729492	34.324348
-6462.542766	4746.343167	1633.696289	0.438125
-6462.542766	4746.343167	1632.662109	96.082115
-6462.542766	4746.343167	1631.628906	50.635139
-6462.542766	4746.343167	1630.594727	141.608673
-6462.542766	4746.343167	1629.561523	79.990685
-6462.542766	4746.343167	1628.527344	85.415428
-6462.542766	4746.343167	1627.493164	12.277877
-6462.542766	4746.343167	1626.458008	119.359993
-6462.542766	4746.343167	1625.423828	115.538139
-6462.542766	4746.343167	1624.388672	139.427811
-6462.542766	4746.343167	1623.353516	149.456924
-6462.542766	4746.343167	1622.318359	191.801453
-6462.542766	4746.343167	1621.282227	164.890839
-6462.542766	4746.343167	1620.247070	128.766205
-6462.542766	4746.343167	1619.210938	9.602661
-6462.542766	4746.343167	1618.174805	282.605194
-6462.542766	4746.343167	1617.137695	80.440536
-6462.542766	4746.343167	1616.101563	180.403717
-6462.542766	4746.343167	1615.064453	176.593201
-6462.542766	4746.343167	1614.027344	366.388977
-6462.542766	4746.343167	1612.990234	360.246857
-6462.542766	4746.343167	1611.953125	324.160400
-6462.542766	4746.343167	1610.916016	437.815399
-6462.542766	4746.343167	1609.877930	362.582672
-6462.542766	4746.343167	1608.839844	563.687927
-6462.542766	4746.343167	1607.801758	539.115295
-6462.542766	4746.343167	1606.763672	650.353271
-6462.542766	4746.343167	1605.724609	565.949402
-6462.542766	4746.343167	1604.685547	670.244690
-6462.542766	4746.343167	1603.646484	657.189453
-6462.542766	4746.343167	1602.607422	630.345947
-6462.542766	4746.343167	1601.568359	752.979492
-6462.542766	4746.343167	1600.528320	710.044495
-6462.542766	4746.343167	1599.489258	729.194214
-6462.542766	4746.343167	1598.449219	661.015015
-6462.542766	4746.343167	1597.408203	804.244446
-6462.542766	4746.343167	1596.368164	589.072754
-6462.542766	4746.343167	1595.327148	617.439453
-6462.542766	4746.343167	1594.287109	654.989868
-6462.542766	4746.343167	1593.246094	616.768494
-6462.542766	4746.343167	1592.204102	404.120239
-6462.542766	4746.343167	1591.163086	434.825195
-6462.542766	4746.343167	1590.121094	479.290161
-6462.542766	4746.343167	1589.079102	521.452148
-6462.542766	4746.343167	1588.037109	251.681442
-6462.542766	4746.343167	1586.995117	367.267273
-6462.542766	4746.343167	1585.953125	212.282532
-6462.542766	4746.343167	1584.910156	302.631531
-6462.542766	4746.343167	1583.867188	250.864410
-6462.542766	4746.343167	1582.824219	343.479919
-6462.542766	4746.343167	1581.781250	206.981369
-6462.542766	4746.343167	1580.737305	196.516479
-6462.542766	4746.343167	1579.693359	282.244049
-6462.542766	4746.343167	1578.649414	383.974518
-6462.542766	4746.343167	1577.605469	265.923859
-6462.542766	4746.343167	1576.561523	287.535645
-6462.542766	4746.343167	1575.516602	283.977325
-6462.542766	4746.343167	1574.472656	138.593597
-6462.542766	4746.343167	1573.427734	164.821381
-6462.542766	4746.343167	1572.381836	195.620819
-6462.542766	4746.343167	1571.336914	400.187042
-6462.542766	4746.343167	1570.291016	179.496918
-6462.542766	4746.343167	1569.246094	219.453247
-6462.542766	4746.343167	1568.200195	321.098816
-6462.542766	4746.343167	1567.153320	169.123749
-6462.542766	4746.343167	1566.107422	311.877136
-6462.542766	4746.343167	1565.060547	376.938416
-6462.542766	4746.343167	1564.013672	364.355835
-6462.542766	4746.343167	1562.966797	525.283386
-6462.542766	4746.343167	1561.919922	414.559509
-6462.542766	4746.343167	1560.872070	306.171753
-6462.542766	4746.343167	1559.825195	311.914093
-6462.542766	4746.343167	1558.777344	196.771164
-6462.542766	4746.343167	1557.729492	270.972504
-6462.542766	4746.343167	1556.680664	326.914886
-6462.542766	4746.343167	1555.632813	257.469269
-6462.542766	4746.343167	1554.583984	142.477585
-6462.542766	4746.343167	1553.535156	184.779449
-6462.542766	4746.343167	1552.486328	172.398682
-6462.542766	4746.343167	1551.436523	230.648285
-6462.542766	4746.343167	1550.387695	200.071533
-6462.542766	4746.343167	1549.337891	151.302673
-6462.542766	4746.343167	1548.288086	166.309906
-6462.542766	4746.343167	1547.238281	160.840912
-6462.542766	4746.343167	1546.187500	0.643124
-6462.542766	4746.343167	1545.136719	284.183228
-6462.542766	4746.343167	1544.086914	165.001068
-6462.542766	4746.343167	1543.035156	136.847122
-6462.542766	4746.343167	1541.984375	120.090759
-6462.542766	4746.343167	1540.933594	212.478455
-6462.542766	4746.343167	1539.881836	277.567322
-6462.542766	4746.343167	1538.830078	229.021149
-6462.542766	4746.343167	1537.778320	178.237045
-6462.542766	4746.343167	1536.725586	291.041656
-6462.542766	4746.343167	1535.673828	287.990479
-6462.542766	4746.343167	1534.621094	155.524307
-6462.542766	4746.343167	1533.568359	288.745392
-6462.542766	4746.343167	1532.515625	269.852570
-6462.542766	4746.343167	1531.461914	384.873230
-6462.542766	4746.343167	1530.409180	404.572632
-6462.542766	4746.343167	1529.355469	279.096863
-6462.542766	4746.343167	1528.301758	371.415710
-6462.542766	4746.343167	1527.247070	484.120148
-6462.542766	4746.343167	1526.193359	388.223816
-6462.542766	4746.343167	1525.138672	541.713745
-6462.542766	4746.343167	1524.083984	561.452271
-6462.542766	4746.343167	1523.029297	544.947205
-6462.542766	4746.343167	1521.974609	619.078064
-6462.542766	4746.343167	1520.918945	543.712708
-6462.542766	4746.343167	1519.863281	393.668030
-6462.542766	4746.343167	1518.807617	411.234070
-6462.542766	4746.343167	1517.751953	412.965118
-6462.542766	4746.343167	1516.696289	328.715240
-6462.542766	4746.343167	1515.639648	264.878235
-6462.542766	4746.343167	1514.583008	87.974022
-6462.542766	4746.343167	1513.526367	150.901550
-6462.542766	4746.343167	1512.469727	234.173080
-6462.542766	4746.343167	1511.412109	46.125622
-6462.542766	4746.343167	1510.355469	86.472282
-6462.542766	4746.343167	1509.297852	-51.717461
-6462.542766	4746.343167	1508.240234	-15.853274
-6462.542766	4746.343167	1507.181641	99.079391
-6462.542766	4746.343167	1506.124023	-14.133254
-6462.542766	4746.343167	1505.065430	-52.765842
-6462.542766	4746.343167	1504.006836	-10.087981
-6462.542766	4746.343167	1502.948242	-120.902870
-6462.542766	4746.343167	1501.888672	-19.516916
-6462.542766	4746.343167	1500.830078	59.284119
-6462.542766	4746.343167	1499.770508	4.971381
-6462.542766	4746.343167	1498.710938	2.573986
-6462.542766	4746.343167	1497.650391	-56.181705
-6462.542766	4746.343167	1496.590820	-40.493458
-6462.542766	4746.343167	1495.530273	-18.032578
-6462.542766	4746.343167	1494.469727	85.569572
-6462.542766	4746.343167	1493.409180	8.890645
-6462.542766	4746.343167	1492.348633	130.504623
-6462.542766	4746.343167	1491.287109	2.078381
-6462.542766	4746.343167	1490.225586	143.947540
-6462.542766	4746.343167	1489.164063	60.634296
-6462.542766	4746.343167	1488.102539	92.173088
-6462.542766	4746.343167	1487.041016	49.449665
-6462.542766	4746.343167	1485.978516	-20.241100
-6462.542766	4746.343167	1484.916016	-2.118134
-6462.542766	4746.343167	1483.853516	45.192577
-6462.542766	4746.343167	1482.791016	99.281845
-6462.542766	4746.343167	1481.727539	144.369415
-6462.542766	4746.343167	1480.664063	-39.802525
-6462.542766	4746.343167	1479.600586	155.895630
-6462.542766	4746.343167	1478.537109	149.328369
-6462.542766	4746.343167	1477.473633	-5.474045
-6462.542766	4746.343167	1476.409180	66.650589
-6462.542766	4746.343167	1475.344727	156.671402
-6462.542766	4746.343167	1474.280273	46.942619
-6462.542766	4746.343167	1473.215820	40.499847
-6462.542766	4746.343167	1472.151367	123.881638
-6462.542766	4746.343167	1471.085938	151.003937
-6462.542766	4746.343167	1470.020508	93.107994
-6462.542766	4746.343167	1468.955078	3.825123
-6462.542766	4746.343167	1467.888672	114.044952
-6462.542766	4746.343167	1466.823242	-26.654219
-6462.542766	4746.343167	1465.756836	-73.224754
-6462.542766	4746.343167	1464.690430	88.751480
-6462.542766	4746.343167	1463.624023	118.288376
-6462.542766	4746.343167	1462.556641	167.820541
-6462.542766	4746.343167	1461.490234	18.128506
-6462.542766	4746.343167	1460.422852	57.093792
-6462.542766	4746.343167	1459.355469	97.654716
-6462.542766	4746.343167	1458.287109	64.796753
-6462.542766	4746.343167	1457.219727	236.885239
-6462.542766	4746.343167	1456.151367	219.859924
-6462.542766	4746.343167	1455.083008	231.509644
-6462.542766	4746.343167	1454.014648	263.597504
-6462.542766	4746.343167	1452.945313	212.635941
-6462.542766	4746.343167	1451.876953	246.966644
-6462.542766	4746.343167	1450.807617	321.640869
-6462.542766	4746.343167	1449.738281	352.661713
-6462.542766	4746.343167	1448.668945	211.020294
-6462.542766	4746.343167	1447.598633	256.609955
-6462.542766	4746.343167	1446.528320	305.030914
-6462.542766	4746.343167	1445.458008	328.366119
-6462.542766	4746.343167	1444.387695	415.499237
-6462.542766	4746.343167	1443.317383	360.324219
-6462.542766	4746.343167	1442.246094	414.208649
-6462.542766	4746.343167	1441.174805	503.652527
-6462.542766	4746.343167	1440.103516	591.340332
-6462.542766	4746.343167	1439.032227	549.708435
-6462.542766	4746.343167	1437.960938	581.489319
-6462.542766	4746.343167	1436.888672	588.038208
-6462.542766	4746.343167	1435.816406	534.403992
-6462.542766	4746.343167	1434.744141	447.981995
-6462.542766	4746.343167	1433.670898	570.692139
-6462.542766	4746.343167	1432.598633	633.398987
-6462.542766	4746.343167	1431.525391	502.070831
-6462.542766	4746.343167	1430.452148	442.802704
-6462.542766	4746.343167	1429.378906	394.208771
-6462.542766	4746.343167	1428.304688	451.359863
-6462.542766	4746.343167	1427.231445	372.305908
-6462.542766	4746.343167	1426.157227	318.747803
-6462.542766	4746.343167	1425.083008	300.115448
-6462.542766	4746.343167	1424.007813	330.487549
-6462.542766	4746.343167	1422.933594	263.081390
-6462.542766	4746.343167	1421.858398	406.105774
-6462.542766	4746.343167	1420.783203	385.704926
-6462.542766	4746.343167	1419.708008	373.291321
-6462.542766	4746.343167	1418.631836	502.667358
-6462.542766	4746.343167	1417.555664	558.431763
-6462.542766	4746.343167	1416.479492	652.180725
-6462.542766	4746.343167	1415.403320	596.744080
-6462.542766	4746.343167	1414.327148	715.934692
-6462.542766	4746.343167	1413.250000	825.754822
-6462.542766	4746.343167	1412.173828	849.230042
-6462.542766	4746.343167	1411.096680	928.045410
-6462.542766	4746.343167	1410.018555	939.604187
-6462.542766	4746.343167	1408.941406	1016.066162
-6462.542766	4746.343167	1407.863281	985.579956
-6462.542766	4746.343167	1406.785156	818.346619
-6462.542766	4746.343167	1405.707031	846.387146
-6462.542766	4746.343167	1404.628906	734.710144
-6462.542766	4746.343167	1403.549805	678.324158
-6462.542766	4746.343167	1402.470703	721.491943
-6462.542766	4746.343167	1401.391602	652.607300
-6462.542766	4746.343167	1400.312500	615.022217
-6462.542766	4746.343167	1399.233398	610.650024
-6462.542766	4746.343167	1398.153320	559.887695
-6462.542766	4746.343167	1397.073242	537.466003
-6462.542766	4746.343167	1395.993164	604.912659
-6462.542766	4746.343167	1394.913086	509.893005
-6462.542766	4746.343167	1393.832031	672.177979
-6462.542766	4746.343167	1392.750977	526.849426
-6462.542766	4746.343167	1391.669922	687.536621
-6462.542766	4746.343167	1390.588867	684.712036
-6462.542766	4746.343167	1389.506836	775.908813
-6462.542766	4746.343167	1388.425781	772.478271
-6462.542766	4746.343167	1387.343750	775.827148
-6462.542766	4746.343167	1386.261719	730.788635
-6462.542766	4746.343167	1385.178711	674.227112
-6462.542766	4746.343167	1384.096680	675.729919
-6462.542766	4746.343167	1383.013672	537.636169
-6462.542766	4746.343167	1381.930664	471.541199
-6462.542766	4746.343167	1380.846680	462.322021
-6462.542766	4746.343167	1379.763672	420.344330
-6462.542766	4746.343167	1378.679688	363.096649
-6462.542766	4746.343167	1377.595703	384.488739
-6462.542766	4746.343167	1376.511719	388.376953
-6462.542766	4746.343167	1375.427734	340.625366
-6462.542766	4746.343167	1374.342773	308.446960
-6462.542766	4746.343167	1373.257813	264.683624
-6462.542766	4746.343167	1372.172852	240.615479
-6462.542766	4746.343167	1371.087891	401.838074
-6462.542766	4746.343167	1370.001953	359.987762
-6462.542766	4746.343167	1368.916992	336.005219
-6462.542766	4746.343167	1367.831055	347.402130
-6462.542766	4746.343167	1366.744141	365.464905
-6462.542766	4746.343167	1365.658203	412.228027
-6462.542766	4746.343167	1364.571289	344.005859
-6462.542766	4746.343167	1363.484375	353.808655
-6462.542766	4746.343167	1362.397461	357.584076
-6462.542766	4746.343167	1361.310547	321.521851
-6462.542766	4746.343167	1360.222656	338.822876
-6462.542766	4746.343167	1359.135742	266.978485
-6462.542766	4746.343167	1358.047852	321.456482
-6462.542766	4746.343167	1356.958984	341.895874
-6462.542766	4746.343167	1355.871094	240.529694
-6462.542766	4746.343167	1354.782227	306.099701
-6462.542766	4746.343167	1353.693359	331.963287
-6462.542766	4746.343167	1352.604492	396.656921
-6462.542766	4746.343167	1351.515625	167.619858
-6462.542766	4746.343167	1350.425781	323.523254
-6462.542766	4746.343167	1349.335938	245.487640
-6462.542766	4746.343167	1348.246094	352.138336
-6462.542766	4746.343167	1347.156250	407.549927
-6462.542766	4746.343167	1346.066406	301.434082
-6462.542766	4746.343167	1344.975586	428.492798
-6462.542766	4746.343167	1343.884766	487.866089
-6462.542766	4746.343167	1342.793945	358.842834
-6462.542766	4746.343167	1341.702148	299.856934
-6462.542766	4746.343167	1340.611328	475.010834
-6462.542766	4746.343167	1339.519531	525.902954
-6462.542766	4746.343167	1338.427734	494.146393
-6462.542766	4746.343167	1337.334961	566.791321
-6462.542766	4746.343167	1336.243164	489.435730
-6462.542766	4746.343167	1335.150391	422.762543
-6462.542766	4746.343167	1334.057617	539.164612
-6462.542766	4746.343167	1332.964844	367.887512
-6462.542766	4746.343167	1331.871094	420.490051
-6462.542766	4746.343167	1330.778320	401.154724
-6462.542766	4746.343167	1329.684570	251.476089
-6462.542766	4746.343167	1328.590820	263.875854
-6462.542766	4746.343167	1327.496094	163.275269
-6462.542766	4746.343167	1326.402344	274.405609
-6462.542766	4746.343167	1325.307617	117.507912
-6462.542766	4746.343167	1324.212891	130.622559
-6462.542766	4746.343167	1323.117188	255.208878
-6462.542766	4746.343167	1322.022461	213.766174
-6462.542766	4746.343167	1320.926758	223.157120
-6462.542766	4746.343167	1319.831055	60.196495
-6462.542766	4746.343167	1318.735352	197.501801
-6462.542766	4746.343167	1317.638672	115.811684
-6462.542766	4746.343167	1316.542969	83.025841
-6462.542766	4746.343167	1315.446289	183.504501
-6462.542766	4746.343167	1314.349609	198.291443
-6462.542766	4746.343167	1313.251953	213.716614
-6462.542766	4746.343167	1312.155273	211.065445
-6462.542766	4746.343167	1311.057617	326.248962
-6462.542766	4746.343167	1309.959961	340.051666
-6462.542766	4746.343167	1308.862305	239.825958
-6462.542766	4746.343167	1307.763672	288.305084
-6462.542766	4746.343167	1306.665039	299.349213
-6462.542766	4746.343167	1305.566406	182.412308
-6462.542766	4746.343167	1304.467773	242.324295
-6462.542766	4746.343167	1303.369141	151.452698
-6462.542766	4746.343167	1302.269531	302.622101
-6462.542766	4746.343167	1301.169922	221.672684
-6462.542766	4746.343167	1300.070313	358.076935
-6462.542766	4746.343167	1298.970703	434.443573
-6462.542766	4746.343167	1297.870117	386.544952
-6462.542766	4746.343167	1296.769531	413.992249
-6462.542766	4746.343167	1295.668945	421.006042
-6462.542766	4746.343167	1294.568359	415.856140
-6462.542766	4746.343167	1293.466797	423.995117
-6462.542766	4746.343167	1292.366211	378.244049
-6462.542766	4746.343167	1291.264648	379.302063
-6462.542766	4746.343167	1290.162109	311.156311
-6462.542766	4746.343167	1289.060547	229.483398
-6462.542766	4746.343167	1287.958008	291.582520
-6462.542766	4746.343167	1286.855469	214.134216
-6462.542766	4746.343167	1285.752930	152.644653
-6462.542766	4746.343167	1284.650391	189.212875
-6462.542766	4746.343167	1283.546875	140.105789
-6462.542766	4746.343167	1282.444336	173.273972
-6462.542766	4746.343167	1281.339844	289.008789
-6462.542766	4746.343167	1280.236328	125.666557
-6462.542766	4746.343167	1279.132813	157.366302
-6462.542766	4746.343167	1278.028320	238.752396
-6462.542766	4746.343167	1276.923828	258.433624
-6462.542766	4746.343167	1275.819336	203.178406
-6462.542766	4746.343167	1274.713867	196.424591
-6462.542766	4746.343167	1273.608398	199.561234
-6462.542766	4746.343167	1272.503906	163.913452
-6462.542766	4746.343167	1271.397461	228.988342
-6462.542766	4746.343167	1270.291992	170.787354
-6462.542766	4746.343167	1269.185547	84.166252
-6462.542766	4746.343167	1268.080078	39.991219
-6462.542766	4746.343167	1266.972656	151.914337
-6462.542766	4746.343167	1265.866211	79.244247
-6462.542766	4746.343167	1264.759766	87.526192
-6462.542766	4746.343167	1263.652344	13.109606
-6462.542766	4746.343167	1262.544922	-12.069278
-6462.542766	4746.343167	1261.436523	14.839456
-6462.542766	4746.343167	1260.329102	7.984534
-6462.542766	4746.343167	1259.220703	-25.544949
-6462.542766	4746.343167	1258.112305	-54.554188
-6462.542766	4746.343167	1257.003906	99.028732
-6462.542766	4746.343167	1255.895508	-76.767715
-6462.542766	4746.343167	1254.786133	-21.926403
-6462.542766	4746.343167	1253.676758	53.484802
-6462.542766	4746.343167	1252.567383	19.846426
-6462.542766	4746.343167	1251.458008	68.582199
-6462.542766	4746.343167	1250.347656	67.265884
-6462.542766	4746.343167	1249.237305	84.693169
-6462.542766	4746.343167	1248.126953	124.413277
-6462.542766	4746.343167	1247.016602	20.565523
-6462.542766	4746.343167	1245.905273	112.875023
-6462.542766	4746.343167	1244.793945	46.151657
-6462.542766	4746.343167	1243.682617	160.437561
-6462.542766	4746.343167	1242.571289	-3.326882
-6462.542766	4746.343167	1241.459961	81.325027
-6462.542766	4746.343167	1240.347656	134.115204
-6462.542766	4746.343167	1239.235352	107.873825
-6462.542766	4746.343167	1238.123047	198.606674
-6462.542766	4746.343167	1237.009766	104.609406
-6462.542766	4746.343167	1235.897461	179.799789
-6462.542766	4746.343167	1234.784180	221.019196
-6462.542766	4746.343167	1233.670898	141.667130
-6462.542766	4746.343167	1232.556641	118.284348
-6462.542766	4746.343167	1231.443359	64.751595
-6462.542766	4746.343167	1230.329102	166.561523
-6462.542766	4746.343167	1229.214844	174.894501
-6462.542766	4746.343167	1228.099609	182.066589
-6462.542766	4746.343167	1226.985352	133.167603
-6462.542766	4746.343167	1225.870117	42.517311
-6462.542766	4746.343167	1224.754883	122.892754
-6462.542766	4746.343167	1223.639648	-4.642630
-6462.542766	4746.343167	1222.523438	-9.437564
-6462.542766	4746.343167	1221.408203	-16.012270
-6462.542766	4746.343167	1220.291992	-10.312930
-6462.542766	4746.343167	1219.174805	7.386467
-6462.542766	4746.343167	1218.058594	29.149490
-6462.542766	4746.343167	1216.941406	96.722549
-6462.542766	4746.343167	1215.824219	29.620808
-6462.542766	4746.343167	1214.707031	16.592043
-6462.542766	4746.343167	1213.589844	89.462402
-6462.542766	4746.343167	1212.471680	33.490524
-6462.542766	4746.343167	1211.353516	88.654770
-6462.542766	4746.343167	1210.235352	-1.424294
-6462.542766	4746.343167	1209.117188	-10.094580
-6462.542766	4746.343167	1207.998047	15.402542
-6462.542766	4746.343167	1206.878906	61.000774
-6462.542766	4746.343167	1205.759766	50.618557
-6462.542766	4746.343167	1204.640625	-24.307354
-6462.542766	4746.343167	1203.520508	83.075645
-6462.542766	4746.343167	1202.401367	29.739073
-6462.542766	4746.343167	1201.281250	47.732864
-6462.542766	4746.343167	1200.160156	-12.543107
-6462.542766	4746.343167	1199.040039	-15.538899
-6462.542766	4746.343167	1197.918945	19.616428
-6462.542766	4746.343167	1196.797852	42.788795
-6462.542766	4746.343167	1195.676758	-52.574532
-6462.542766	4746.343167	1194.555664	89.878754
-6462.542766	4746.343167	1193.433594	-8.206569
-6462.542766	4746.343167	1192.311523	-66.542412
-6462.542766	4746.343167	1191.189453	-19.908073
-6462.542766	4746.343167	1190.066406	-24.767168
-6462.542766	4746.343167	1188.944336	-92.005890
-6462.542766	4746.343167	1187.821289	-40.749012
-6462.542766	4746.343167	1186.698242	-11.268476
-6462.542766	4746.343167	1185.574219	35.182522
-6462.542766	4746.343167	1184.451172	9.142179
-6462.542766	4746.343167	1183.327148	-35.202568
-6462.542766	4746.343167	1182.203125	-16.513996
-6462.542766	4746.343167	1181.078125	-50.386879
-6462.542766	4746.343167	1179.954102	26.027596
-6462.542766	4746.343167	1178.829102	-77.275826
-6462.542766	4746.343167	1177.704102	-12.966709
-6462.542766	4746.343167	1176.579102	-57.304047
-6462.542766	4746.343167	1175.453125	-76.246407
-6462.542766	4746.343167	1174.327148	-123.034859
-6462.542766	4746.343167	1173.201172	-23.981611
-6462.542766	4746.343167	1172.075195	-84.604202
-6462.542766	4746.343167	1170.949219	-48.992420
-6462.542766	4746.343167	1169.822266	39.823120
-6462.542766	4746.343167	1168.695313	0.403637
-6462.542766	4746.343167	1167.568359	-1.537434
-6462.542766	4746.343167	1166.440430	-20.320515
-6462.542766	4746.343167	1165.313477	-66.326569
-6462.542766	4746.343167	1164.185547	52.370644
-6462.542766	4746.343167	1163.057617	-11.360003
-6462.542766	4746.343167	1161.928711	-60.370682
-6462.542766	4746.343167	1160.800781	48.236511
-6462.542766	4746.343167	1159.671875	-46.282150
-6462.542766	4746.343167	1158.541992	-13.887073
-6462.542766	4746.343167	1157.413086	-89.720581
-6462.542766	4746.343167	1156.283203	-60.137035
-6462.542766	4746.343167	1155.154297	-31.174244
-6462.542766	4746.343167	1154.023438	-50.371403
-6462.542766	4746.343167	1152.893555	2.394097
-6462.542766	4746.343167	1151.763672	-23.136198
-6462.542766	4746.343167	1150.632813	24.306828
-6462.542766	4746.343167	1149.501953	-1.731818
-6462.542766	4746.343167	1148.370117	-76.781609
-6462.542766	4746.343167	1147.239258	-76.590462
-6462.542766	4746.343167	1146.107422	10.042589
-6462.542766	4746.343167	1144.975586	-19.660170
-6462.542766	4746.343167	1143.843750	-32.685455
-6462.542766	4746.343167	1142.710938	-16.886744
-6462.542766	4746.343167	1141.578125	-14.540257
-6462.542766	4746.343167	1140.445313	64.890724
-6462.542766	4746.343167	1139.312500	-20.730412
-6462.542766	4746.343167	1138.178711	-4.747873
-6462.542766	4746.343167	1137.045898	-65.720985
-6462.542766	4746.343167	1135.912109	-48.114628
-6462.542766	4746.343167	1134.777344	29.510498
-6462.542766	4746.343167	1133.643555	64.270645
-6462.542766	4746.343167	1132.508789	-7.593537
-6462.542766	4746.343167	1131.374023	25.157665
-6462.542766	4746.343167	1130.239258	28.415966
-6462.542766	4746.343167	1129.104492	136.856781
-6462.542766	4746.343167	1127.968750	117.456917
-6462.542766	4746.343167	1126.833008	38.605526
-6462.542766	4746.343167	1125.697266	8.918935
-6462.542766	4746.343167	1124.560547	124.537041
-6462.542766	4746.343167	1123.424805	86.437759
-6462.542766	4746.343167	1122.288086	128.019394
-6462.542766	4746.343167	1121.151367	66.091042
-6462.542766	4746.343167	1120.013672	126.716904
-6462.542766	4746.343167	1118.876953	44.794857
-6462.542766	4746.343167	1117.739258	-25.341515
-6462.542766	4746.343167	1116.601563	41.841270
-6462.542766	4746.343167	1115.462891	143.783630
-6462.542766	4746.343167	1114.324219	184.816910
-6462.542766	4746.343167	1113.186523	-11.694598
-6462.542766	4746.343167	1112.046875	-47.773178
-6462.542766	4746.343167	1110.908203	93.820061
-6462.542766	4746.343167	1109.769531	-5.993991
-6462.542766	4746.343167	1108.629883	125.592751
-6462.542766	4746.343167	1107.490234	59.507587
-6462.542766	4746.343167	1106.349609	111.267357
-6462.542766	4746.343167	1105.209961	62.517563
-6462.542766	4746.343167	1104.069336	93.217484
-6462.542766	4746.343167	1102.928711	34.340351
-6462.542766	4746.343167	1101.787109	-24.497650
-6462.542766	4746.343167	1100.646484	213.174438
-6462.542766	4746.343167	1099.504883	88.341553
-6462.542766	4746.343167	1098.363281	40.461514
-6462.542766	4746.343167	1097.221680	139.284012
-6462.542766	4746.343167	1096.079102	95.010437
-6462.542766	4746.343167	1094.936523	93.931419
-6462.542766	4746.343167	1093.793945	65.203362
-6462.542766	4746.343167	1092.651367	76.420189
-6462.542766	4746.343167	1091.507813	44.771084
-6462.542766	4746.343167	1090.364258	84.642876
-6462.542766	4746.343167	1089.220703	138.684158
-6462.542766	4746.343167	1088.077148	-4.913240
-6462.542766	4746.343167	1086.933594	126.188980
-6462.542766	4746.343167	1085.789063	112.947845
-6462.542766	4746.343167	1084.644531	148.298264
-6462.542766	4746.343167	1083.499023	69.110123
-6462.542766	4746.343167	1082.354492	127.769188
-6462.542766	4746.343167	1081.208984	16.059952
-6462.542766	4746.343167	1080.063477	78.165634
-6462.542766	4746.343167	1078.917969	38.826630
-6462.542766	4746.343167	1077.771484	74.900139
-6462.542766	4746.343167	1076.625977	173.647903
-6462.542766	4746.343167	1075.479492	110.639572
-6462.542766	4746.343167	1074.332031	134.907578
-6462.542766	4746.343167	1073.185547	150.401154
-6462.542766	4746.343167	1072.038086	112.575218
-6462.542766	4746.343167	1070.890625	121.303917
-6462.542766	4746.343167	1069.743164	8.379403
-6462.542766	4746.343167	1068.594727	138.245804
-6462.542766	4746.343167	1067.447266	208.534973
-6462.542766	4746.343167	1066.298828	-55.373360
-6462.542766	4746.343167	1065.149414	118.417015
-6462.542766	4746.343167	1064.000977	110.189774
-6462.542766	4746.343167	1062.851563	52.270496
-6462.542766	4746.343167	1061.702148	99.404381
-6462.542766	4746.343167	1060.552734	99.962715
-6462.542766	4746.343167	1059.402344	113.949699
-6462.542766	4746.343167	1058.252930	144.651413
-6462.542766	4746.343167	1057.102539	-84.930717
-6462.542766	4746.343167	1055.951172	-18.165661
-6462.542766	4746.343167	1054.800781	45.076897
-6462.542766	4746.343167	1053.649414	123.459511
-6462.542766	4746.343167	1052.498047	165.550613
-6462.542766	4746.343167	1051.346680	188.042252
-6462.542766	4746.343167	1050.194336	28.774157
-6462.542766	4746.343167	1049.042969	54.556252
-6462.542766	4746.343167	1047.890625	11.931031
-6462.542766	4746.343167	1046.738281	79.238861
-6462.542766	4746.343167	1045.584961	72.138313
-6462.542766	4746.343167	1044.431641	-12.128406
-6462.542766	4746.343167	1043.278320	19.715742
-6462.542766	4746.343167	1042.125000	-23.428421
-6462.542766	4746.343167	1040.971680	-28.053627
-6462.542766	4746.343167	1039.817383	61.855900
-6462.542766	4746.343167	1038.663086	46.221294
-6462.542766	4746.343167	1037.508789	48.844494
-6462.542766	4746.343167	1036.353516	-36.806305
-6462.542766	4746.343167	1035.198242	41.712711
-6462.542766	4746.343167	1034.042969	53.064323
-6462.542766	4746.343167	1032.887695	2.810244
-6462.542766	4746.343167	1031.732422	45.889618
-6462.542766	4746.343167	1030.576172	162.871262
-6462.542766	4746.343167	1029.419922	94.625214
-6462.542766	4746.343167	1028.263672	175.971481
-6462.542766	4746.343167	1027.106445	211.201096
-6462.542766	4746.343167	1025.949219	142.018021
-6462.542766	4746.343167	1024.792969	-11.614957
-6462.542766	4746.343167	1023.634766	-70.970406
-6462.542766	4746.343167	1022.477539	-13.371599
-6462.542766	4746.343167	1021.319336	-9.033276
-6462.542766	4746.343167	1020.161133	159.207748
-6462.542766	4746.343167	1019.002930	21.772066
-6462.542766	4746.343167	1017.843750	149.020081
-6462.542766	4746.343167	1016.684570	-46.642128
-6462.542766	4746.343167	1015.525391	67.561493
-6462.542766	4746.343167	1014.366211	81.422134
-6462.542766	4746.343167	1013.207031	-3.728975
-6462.542766	4746.343167	1012.046875	-44.643440
-6462.542766	4746.343167	1010.886719	124.616745
-6462.542766	4746.343167	1009.726563	61.455803
-6462.542766	4746.343167	1008.565430	172.751556
-6462.542766	4746.343167	1007.404297	-31.710373
-6462.542766	4746.343167	1006.243164	33.177361
-6462.542766	4746.343167	1005.082031	53.562145
-6462.542766	4746.343167	1003.920898	0.181693
-6462.542766	4746.343167	1002.758789	67.059135
-6462.542766	4746.343167	1001.596680	110.800110
-6462.542766	4746.343167	1000.433594	117.556679
-6462.542766	4746.343167	999.271484	24.370426
-6462.542766	4746.343167	998.108398	106.470131
-6462.542766	4746.343167	996.945313	12.486763
-6462.542766	4746.343167	995.782227	11.267649
-6462.542766	4746.343167	994.618164	38.816956
-6462.542766	4746.343167	993.454102	-15.199963
-6462.542766	4746.343167	992.290039	114.581551
-6462.542766	4746.343167	991.125977	133.655548
-6462.542766	4746.343167	989.960938	99.371193
-6462.542766	4746.343167	988.796875	45.830402
-6462.542766	4746.343167	987.630859	169.502090
-6462.542766	4746.343167	986.465820	-2.119970
-6462.542766	4746.343167	985.300781	-52.022774
-6462.542766	4746.343167	984.134766	58.946392
-6462.542766	4746.343167	982.968750	95.176628
-6462.542766	4746.343167	981.801758	145.989609
-6462.542766	4746.343167	980.635742	-39.447529
-6462.542766	4746.343167	979.468750	29.938612
-6462.542766	4746.343167	978.301758	53.916470
-6462.542766	4746.343167	977.133789	-43.215668
-6462.542766	4746.343167	975.966797	1.469947
-6462.542766	4746.343167	974.798828	8.971635
-6462.542766	4746.343167	973.630859	51.414207
-6462.542766	4746.343167	972.461914	-6.508481
-6462.542766	4746.343167	971.293945	95.310875
-6462.542766	4746.343167	970.125000	146.481049
-6462.542766	4746.343167	968.956055	60.915379
-6462.542766	4746.343167	967.786133	60.873188
-6462.542766	4746.343167	966.617188	80.636940
-6462.542766	4746.343167	965.447266	27.491814
-6462.542766	4746.343167	964.276367	-98.072792
-6462.542766	4746.343167	963.106445	46.740154
-6462.542766	4746.343167	961.935547	82.865311
-6462.542766	4746.343167	960.764648	60.197319
-6462.542766	4746.343167	959.593750	90.629837
-6462.542766	4746.343167	958.422852	39.260128
-6462.542766	4746.343167	957.250977	-90.231216
-6462.542766	4746.343167	956.079102	43.603851
-6462.542766	4746.343167	954.907227	3.308628
-6462.542766	4746.343167	953.734375	-13.665500
-6462.542766	4746.343167	952.562500	5.958409
-6462.542766	4746.343167	951.389648	-34.750439
-6462.542766	4746.343167	950.215820	39.916580
-6462.542766	4746.343167	949.042969	5.939910
-6462.542766	4746.343167	947.869141	-11.423160
-6462.542766	4746.343167	946.695313	28.798697
-6462.542766	4746.343167	945.521484	0.398759
-6462.542766	4746.343167	944.346680	-105.356285
-6462.542766	4746.343167	943.172852	9.003087
-6462.542766	4746.343167	941.998047	-116.714417
-6462.542766	4746.343167	940.822266	57.650990
-6462.542766	4746.343167	939.647461	37.908794
-6462.542766	4746.343167	938.471680	78.156136
-6462.542766	4746.343167	937.295898	64.114433
-6462.542766	4746.343167	936.119141	47.138603
-6462.542766	4746.343167	934.943359	44.501381
-6462.542766	4746.343167	933.766602	116.104958
-6462.542766	4746.343167	932.589844	67.771248
-6462.542766	4746.343167	931.413086	85.105759
-6462.542766	4746.343167	930.235352	165.262802
-6462.542766	4746.343167	929.057617	85.650658
-6462.542766	4746.343167	927.879883	151.587723
-6462.542766	4746.343167	926.702148	29.261503
-6462.542766	4746.343167	925.523438	69.568077
-6462.542766	4746.343167	924.344727	-21.298706
-6462.542766	4746.343167	923.166016	116.018097
-6462.542766	4746.343167	921.987305	33.775822
-6462.542766	4746.343167	920.807617	-8.500747
-6462.542766	4746.343167	919.627930	-7.167399
-6462.542766	4746.343167	919.497070	-19.241505
-6462.542766	4746.343167	918.331055	149.384537
-6462.542766	4746.343167	917.165039	-26.727419
-6462.542766	4746.343167	915.999023	-128.696259
-6462.542766	4746.343167	914.833008	14.283930
-6462.542766	4746.343167	913.666016	6.340049
-6462.542766	4746.343167	912.499023	-44.275169
-6462.542766	4746.343167	911.332031	41.748566
-6462.542766	4746.343167	910.165039	68.008881
-6462.542766	4746.343167	908.997070	31.698679
-6462.542766	4746.343167	907.830078	1.110818
-6462.542766	4746.343167	906.661133	81.453964
-6462.542766	4746.343167	905.493164	-108.290176
-6462.542766	4746.343167	904.325195	-42.128662
-6462.542766	4746.343167	903.156250	55.286999
-6462.542766	4746.343167	901.987305	13.467159
-6462.542766	4746.343167	900.818359	-164.662445
-6462.542766	4746.343167	899.648438	80.461548
-6462.542766	4746.343167	898.478516	21.689047
-6462.542766	4746.343167	897.308594	11.221158
-6462.542766	4746.343167	896.138672	125.661339
-6462.542766	4746.343167	894.968750	15.898694
-6462.542766	4746.343167	893.797852	-59.751881
-6462.542766	4746.343167	892.626953	57.532066
-6462.542766	4746.343167	891.456055	24.483377
-6462.542766	4746.343167	890.284180	116.226074
-6462.542766	4746.343167	889.113281	91.724052
-6462.542766	4746.343167	887.941406	104.098251
-6462.542766	4746.343167	886.768555	235.500977
-6462.542766	4746.343167	885.596680	83.564240
-6462.542766	4746.343167	884.423828	36.512089
-6462.542766	4746.343167	883.250977	-231.388367
-6462.542766	4746.343167	882.078125	112.403557
-6462.542766	4746.343167	880.905273	105.063774
-6462.542766	4746.343167	879.731445	66.616821
-6462.542766	4746.343167	878.557617	87.626122
-6462.542766	4746.343167	877.383789	117.133308
-6462.542766	4746.343167	876.209961	-51.341946
-6462.542766	4746.343167	875.035156	-7.639082
-6462.542766	4746.343167	873.860352	115.228348
-6462.542766	4746.343167	872.685547	-30.470503
-6462.542766	4746.343167	871.510742	-122.394928
-6462.542766	4746.343167	870.334961	34.385212
-6462.542766	4746.343167	869.159180	21.622885
-6462.542766	4746.343167	867.983398	-50.427158
-6462.542766	4746.343167	866.807617	15.936115
-6462.542766	4746.343167	865.630859	113.347725
-6462.542766	4746.343167	864.454102	24.443878
-6462.542766	4746.343167	863.277344	62.586964
-6462.542766	4746.343167	862.100586	64.052963
-6462.542766	4746.343167	860.922852	0.657354
-6462.542766	4746.343167	859.745117	143.188614
-6462.542766	4746.343167	858.567383	-35.771385
-6462.542766	4746.343167	857.389648	-31.395424
-6462.542766	4746.343167	856.210938	-105.922409
-6462.542766	4746.343167	855.032227	-28.229464
-6462.542766	4746.343167	853.853516	29.726200
-6462.542766	4746.343167	852.674805	-103.870773
-6462.542766	4746.343167	851.495117	-127.559807
-6462.542766	4746.343167	850.315430	74.032166
-6462.542766	4746.343167	849.135742	-73.516190
-6462.542766	4746.343167	847.956055	-12.712632
-6462.542766	4746.343167	846.775391	5.874658
-6462.542766	4746.343167	845.595703	7.587521
-6462.542766	4746.343167	844.415039	110.577644
-6462.542766	4746.343167	843.233398	-28.307978
-6462.542766	4746.343167	842.052734	32.502888
-6462.542766	4746.343167	840.871094	-78.169067
-6462.542766	4746.343167	839.689453	13.573968
-6462.542766	4746.343167	838.506836	-74.538269
-6462.542766	4746.343167	837.325195	-106.415344
-6462.542766	4746.343167	836.142578	89.245438
-6462.542766	4746.343167	834.959961	-7.210395
-6462.542766	4746.343167	833.777344	-2.539675
-6462.542766	4746.343167	832.593750	-17.504322
-6462.542766	4746.343167	831.410156	-49.288166
-6462.542766	4746.343167	830.226563	17.158854
-6462.542766	4746.343167	829.042969	-0.567067
-6462.542766	4746.343167	827.858398	-57.537151
-6462.542766	4746.343167	826.673828	90.230003
-6462.542766	4746.343167	825.489258	-14.371315
-6462.542766	4746.343167	824.304688	206.226761
-6462.542766	4746.343167	823.120117	31.608446
-6462.542766	4746.343167	821.934570	19.580484
-6462.542766	4746.343167	820.749023	125.220657
-6462.542766	4746.343167	819.562500	144.009781
-6462.542766	4746.343167	818.376953	-52.806797
-6462.542766	4746.343167	817.190430	-36.767410
-6462.542766	4746.343167	816.003906	82.835556
-6462.542766	4746.343167	814.817383	6.514781
-6462.542766	4746.343167	813.629883	19.765749
-6462.542766	4746.343167	812.442383	-106.838959
-6462.542766	4746.343167	811.254883	46.278755
-6462.542766	4746.343167	810.067383	59.539997
-6462.542766	4746.343167	808.878906	64.420502
-6462.542766	4746.343167	807.690430	74.896622
-6462.542766	4746.343167	806.501953	-76.693062
-6462.542766	4746.343167	805.313477	-91.320267
-6462.542766	4746.343167	804.124023	16.966822
-6462.542766	4746.343167	802.934570	44.231689
-6462.542766	4746.343167	801.745117	-29.019857
-6462.542766	4746.343167	800.555664	-88.277367
-6462.542766	4746.343167	799.365234	81.346535
-6462.542766	4746.343167	798.175781	50.004917
-6462.542766	4746.343167	796.985352	-28.740055
-6462.542766	4746.343167	795.793945	115.683350
-6462.542766	4746.343167	794.603516	34.178898
-6462.542766	4746.343167	793.412109	0.110528
-6462.542766	4746.343167	792.220703	-70.175133
-6462.542766	4746.343167	791.028320	-48.461346
-6462.542766	4746.343167	789.836914	79.120956
-6462.542766	4746.343167	788.644531	17.233095
-6462.542766	4746.343167	787.452148	-52.981209
-6462.542766	4746.343167	786.258789	60.614464
-6462.542766	4746.343167	785.066406	76.726563
-6462.542766	4746.343167	783.873047	56.653381
-6462.542766	4746.343167	782.679688	-52.457706
-6462.542766	4746.343167	781.485352	-41.886063
-6462.542766	4746.343167	780.291992	-14.630562
-6462.542766	4746.343167	779.097656	68.237450
-6462.542766	4746.343167	777.903320	23.171253
-6462.542766	4746.343167	776.708008	33.723759
-6462.542766	4746.343167	775.512695	141.546722
-6462.542766	4746.343167	774.318359	71.484795
-6462.542766	4746.343167	773.122070	109.803291
-6462.542766	4746.343167	771.926758	73.108543
-6462.542766	4746.343167	770.730469	111.408310
-6462.542766	4746.343167	769.534180	49.740082
-6462.542766	4746.343167	768.337891	99.128197
-6462.542766	4746.343167	767.141602	43.034229
-6462.542766	4746.343167	765.944336	50.780613
-6462.542766	4746.343167	764.747070	77.939514
-6462.542766	4746.343167	763.549805	149.459595
-6462.542766	4746.343167	762.351563	37.935207
-6462.542766	4746.343167	761.154297	6.849229
-6462.542766	4746.343167	759.956055	20.122425
-6462.542766	4746.343167	758.757813	52.784023
-6462.542766	4746.343167	757.558594	-14.313069
-6462.542766	4746.343167	756.359375	109.745636
-6462.542766	4746.343167	755.160156	59.270107
-6462.542766	4746.343167	753.960938	127.872322
-6462.542766	4746.343167	752.761719	190.902542
-6462.542766	4746.343167	751.561523	62.928482
-6462.542766	4746.343167	750.361328	159.140778
-6462.542766	4746.343167	749.160156	47.813698
-6462.542766	4746.343167	747.959961	110.781761
-6462.542766	4746.343167	746.758789	129.471008
-6462.542766	4746.343167	745.557617	26.490301
-6462.542766	4746.343167	744.356445	180.622040
-6462.542766	4746.343167	743.154297	108.058899
-6462.542766	4746.343167	741.952148	88.015984
-6462.542766	4746.343167	740.750000	-53.580265
-6462.542766	4746.343167	739.547852	23.068157
-6462.542766	4746.343167	738.344727	149.381683
-6462.542766	4746.343167	737.142578	115.502136
-6462.542766	4746.343167	735.939453	131.312180
-6462.542766	4746.343167	734.735352	50.518257
-6462.542766	4746.343167	733.532227	52.516888
-6462.542766	4746.343167	732.328125	46.229259
-6462.542766	4746.343167	731.124023	199.892059
-6462.542766	4746.343167	729.918945	251.458115
-6462.542766	4746.343167	728.714844	206.500076
-6462.542766	4746.343167	727.509766	197.380188
-6462.542766	4746.343167	726.303711	171.718994
-6462.542766	4746.343167	725.098633	234.214172
-6462.542766	4746.343167	723.892578	128.648117
-6462.542766	4746.343167	722.686523	191.099396
-6462.542766	4746.343167	721.480469	74.543777
-6462.542766	4746.343167	720.274414	200.263443
-6462.542766	4746.343167	719.067383	141.521683
-6462.542766	4746.343167	717.860352	0.240864
-6462.542766	4746.343167	716.653320	106.594788
-6462.542766	4746.343167	715.445313	89.119896
-6462.542766	4746.343167	714.238281	115.631577
-6462.542766	4746.343167	713.030273	40.393448
-6462.542766	4746.343167	711.821289	88.863670
-6462.542766	4746.343167	710.613281	49.353600
-6462.542766	4746.343167	709.404297	81.280792
-6462.542766	4746.343167	708.195313	140.646393
-6462.542766	4746.343167	706.986328	43.423515
-6462.542766	4746.343167	705.776367	-70.250412
-6462.542766	4746.343167	704.566406	57.686825
-6462.542766	4746.343167	703.356445	237.700302
-6462.542766	4746.343167	702.146484	82.837868
-6462.542766	4746.343167	700.935547	-14.363201
-6462.542766	4746.343167	699.724609	31.089804
-6462.542766	4746.343167	698.513672	117.639275
-6462.542766	4746.343167	697.302734	-31.663033
-6462.542766	4746.343167	696.090820	104.165665
-6462.542766	4746.343167	694.878906	12.442631
-6462.542766	4746.343167	693.666992	24.859528
-6462.542766	4746.343167	692.455078	94.778931
-6462.542766	4746.343167	691.242188	63.309048
-6462.542766	4746.343167	690.029297	18.138811
-6462.542766	4746.343167	688.816406	33.195988
-6462.542766	4746.343167	687.602539	-6.517457
-6462.542766	4746.343167	686.389648	82.382103
-6462.542766	4746.343167	685.175781	12.533066
-6462.542766	4746.343167	683.960938	8.342904
-6462.542766	4746.343167	682.747070	195.571823
-6462.542766	4746.343167	681.532227	131.143295
-6462.542766	4746.343167	680.317383	129.594086
-6462.542766	4746.343167	679.102539	-11.369673
-6462.542766	4746.343167	677.886719	-4.736866
-6462.542766	4746.343167	676.670898	119.345276
-6462.542766	4746.343167	675.455078	155.944946
-6462.542766	4746.343167	674.239258	55.961418
-6462.542766	4746.343167	673.022461	141.656235
-6462.542766	4746.343167	671.805664	68.966751
-6462.542766	4746.343167	670.588867	50.865463
-6462.542766	4746.343167	669.372070	73.675011
-6462.542766	4746.343167	668.154297	52.803360
-6462.542766	4746.343167	666.936523	26.459927
-6462.542766	4746.343167	665.718750	60.092354
-6462.542766	4746.343167	664.500977	156.388763
-6462.542766	4746.343167	663.282227	113.609856
-6462.542766	4746.343167	662.063477	-92.683296
-6462.542766	4746.343167	660.844727	-61.881157
-6462.542766	4746.343167	659.625000	88.737137
-6462.542766	4746.343167	658.405273	13.224432
-6462.542766	4746.343167	657.185547	68.412209
-6462.542766	4746.343167	655.965820	82.716415
-6462.542766	4746.343167	654.745117	50.721123
-6462.542766	4746.343167	653.525391	-65.642159
-6462.542766	4746.343167	652.303711	84.629105
-6462.542766	4746.343167	651.083008	106.971741
-6462.542766	4746.343167	649.861328	-14.846506
-6462.542766	4746.343167	648.640625	-6.139796
-6462.542766	4746.343167	647.417969	54.184032
-6462.542766	4746.343167	646.196289	54.666573
-6462.542766	4746.343167	644.973633	85.010475
-6462.542766	4746.343167	643.750977	80.000145
-6462.542766	4746.343167	642.528320	15.214925
-6462.542766	4746.343167	641.305664	113.349899
-6462.542766	4746.343167	640.082031	48.531681
-6462.542766	4746.343167	638.858398	86.852646
-6462.542766	4746.343167	637.634766	0.304283
-6462.542766	4746.343167	636.410156	0.583233
-6462.542766	4746.343167	635.185547	57.796848
-6462.542766	4746.343167	633.960938	17.331408
-6462.542766	4746.343167	632.736328	101.576134
-6462.542766	4746.343167	631.510742	-74.471611
-6462.542766	4746.343167	630.285156	6.993642
-6462.542766	4746.343167	629.059570	80.268845
-6462.542766	4746.343167	627.833984	-87.616135
-6462.542766	4746.343167	626.607422	-27.947182
-6462.542766	4746.343167	625.380859	-87.476097
-6462.542766	4746.343167	624.154297	145.381210
-6462.542766	4746.343167	622.927734	-65.788475
-6462.542766	4746.343167	621.700195	69.492081
-6462.542766	4746.343167	620.472656	109.993904
-6462.542766	4746.343167	619.245117	-49.717197
-6462.542766	4746.343167	618.016602	136.779816
-6462.542766	4746.343167	616.788086	136.606400
-6462.542766	4746.343167	615.559570	1.243656
-6462.542766	4746.343167	614.331055	90.236679
-6462.542766	4746.343167	613.101563	-31.598761
-6462.542766	4746.343167	611.872070	-18.330326
-6462.542766	4746.343167	610.642578	84.039490
-6462.542766	4746.343167	609.413086	-32.391705
-6462.542766	4746.343167	608.182617	-13.806250
-6462.542766	4746.343167	606.952148	-200.396927
-6462.542766	4746.343167	605.721680	-71.186966
-6462.542766	4746.343167	604.491211	-12.206897
-6462.542766	4746.343167	603.259766	-90.849808
-6462.542766	4746.343167	602.028320	132.576645
-6462.542766	4746.343167	600.796875	-32.395329
-6462.542766	4746.343167	599.564453	-27.484028
-6462.542766	4746.343167	598.332031	60.954369
-6462.542766	4746.343167	597.099609	141.248489
-6462.542766	4746.343167	595.867188	-7.512274
-6462.542766	4746.343167	594.633789	40.395119
-6462.542766	4746.343167	593.400391	85.566994
-6462.542766	4746.343167	592.166992	-55.075958
-6462.542766	4746.343167	590.933594	-79.932854
-6462.542766	4746.343167	589.699219	83.585037
-6462.542766	4746.343167	588.464844	61.357586
-6462.542766	4746.343167	587.230469	-79.244789
-6462.542766	4746.343167	585.995117	97.554359
-6462.542766	4746.343167	584.760742	24.187222
-6462.542766	4746.343167	583.525391	74.496162
-6462.542766	4746.343167	582.289063	-23.064180
-6462.542766	4746.343167	581.053711	-18.487787
-6462.542766	4746.343167	579.817383	90.846695
-6462.542766	4746.343167	578.581055	-20.141403
-6462.542766	4746.343167	577.343750	-58.591949
-6462.542766	4746.343167	576.107422	45.257317
-6462.542766	4746.343167	574.870117	95.357727
-6462.542766	4746.343167	573.631836	105.162750
-6462.542766	4746.343167	572.394531	109.580727
-6462.542766	4746.343167	571.156250	54.962589
-6462.542766	4746.343167	569.917969	59.357204
-6462.542766	4746.343167	568.679688	26.193434
-6462.542766	4746.343167	567.440430	-1.609827
-6462.542766	4746.343167	566.202148	16.150356
-6462.542766	4746.343167	564.961914	39.247444
-6462.542766	4746.343167	563.722656	30.170506
-6462.542766	4746.343167	562.482422	-5.702322
-6462.542766	4746.343167	561.243164	-28.182653
-6462.542766	4746.343167	560.001953	-58.699043
-6462.542766	4746.343167	558.761719	223.983566
-6462.542766	4746.343167	557.520508	83.672195
-6462.542766	4746.343167	556.279297	34.385113
-6462.542766	4746.343167	555.038086	-9.541319
-6462.542766	4746.343167	553.795898	139.112274
-6462.542766	4746.343167	552.554688	39.006325
-6462.542766	4746.343167	551.311523	69.932838
-6462.542766	4746.343167	550.069336	-22.116594
-6462.542766	4746.343167	548.826172	30.169832
-6462.542766	4746.343167	547.583984	7.616696
-6462.542766	4746.343167	546.339844	3.762487
-6462.542766	4746.343167	545.096680	42.632580
-6462.542766	4746.343167	543.852539	6.717196
-6462.542766	4746.343167	542.608398	13.521758
-6462.542766	4746.343167	541.364258	65.688301
-6462.542766	4746.343167	540.119141	21.766699
-6462.542766	4746.343167	538.875000	111.246155
-6462.542766	4746.343167	537.628906	-4.691645
-6462.542766	4746.343167	536.383789	-35.252426
-6462.542766	4746.343167	535.137695	46.168953
-6462.542766	4746.343167	533.892578	-29.710745
-6462.542766	4746.343167	532.645508	-6.960852
-6462.542766	4746.343167	531.399414	-48.167202
-6462.542766	4746.343167	530.152344	-60.057446
-6462.542766	4746.343167	528.905273	-55.965748
-6462.542766	4746.343167	527.658203	-99.804543
-6462.542766	4746.343167	526.410156	-85.061371
-6462.542766	4746.343167	525.163086	33.472229
-6462.542766	4746.343167	523.914063	69.465637
-6462.542766	4746.343167	522.666016	-16.931160
-6462.542766	4746.343167	521.416992	56.294140
-6462.542766	4746.343167	520.167969	-56.654335
-6462.542766	4746.343167	518.918945	120.235504
-6462.542766	4746.343167	517.669922	-16.598253
-6462.542766	4746.343167	516.419922	6.076051
-6462.542766	4746.343167	515.169922	-50.964245
-6462.542766	4746.343167	513.919922	43.433041
-6462.542766	4746.343167	512.668945	-5.618867
-6462.542766	4746.343167	511.417969	30.318954
-6462.542766	4746.343167	510.166992	60.935524
-6462.542766	4746.343167	508.916016	110.120773
-6462.542766	4746.343167	507.664063	23.961044
-6462.542766	4746.343167	506.412109	-9.099678
-6462.542766	4746.343167	505.160156	-55.403427
-6462.542766	4746.343167	503.907227	52.119503
-6462.542766	4746.343167	502.655273	66.809151
-6462.542766	4746.343167	501.402344	-13.925066
-6462.542766	4746.343167	500.148438	43.182922
-6462.542766	4746.343167	498.895508	44.632999
-6462.542766	4746.343167	497.641602	48.736412
-6462.542766	4746.343167	496.387695	-50.441669
-6462.542766	4746.343167	495.132813	30.476982
-6462.542766	4746.343167	493.878906	-15.698541
-6462.542766	4746.343167	492.624023	89.009476
-6462.542766	4746.343167	491.368164	-4.776816
-6462.542766	4746.343167	490.113281	44.340698
-6462.542766	4746.343167	488.857422	-4.419576
-6462.542766	4746.343167	487.601563	52.621620
-6462.542766	4746.343167	486.344727	1.248639
-6462.542766	4746.343167	485.088867	-15.734038
-6462.542766	4746.343167	483.832031	-24.775541
-6462.542766	4746.343167	482.575195	95.654343
-6462.542766	4746.343167	481.317383	-40.188431
-6462.542766	4746.343167	480.059570	-17.510536
-6462.542766	4746.343167	478.801758	63.250835
-6462.542766	4746.343167	477.543945	104.385750
-6462.542766	4746.343167	476.285156	-28.681475
-6462.542766	4746.343167	475.027344	-16.559992
-6462.542766	4746.343167	473.767578	-91.496933
-6462.542766	4746.343167	472.508789	-5.508511
-6462.542766	4746.343167	471.249023	109.453011
-6462.542766	4746.343167	469.989258	-28.724588
-6462.542766	4746.343167	468.729492	-48.228287
-6462.542766	4746.343167	467.469727	24.512733
-6462.542766	4746.343167	466.208984	86.684982
-6462.542766	4746.343167	464.948242	77.710976
-6462.542766	4746.343167	463.686523	-2.364191
-6462.542766	4746.343167	462.425781	-106.101265
-6462.542766	4746.343167	461.164063	-9.731838
-6462.542766	4746.343167	459.901367	-18.678999
-6462.542766	4746.343167	458.639648	196.033752
-6462.542766	4746.343167	457.376953	26.568462
-6462.542766	4746.343167	456.114258	78.103714
-6462.542766	4746.343167	454.851563	-17.643625
-6462.542766	4746.343167	453.587891	96.964157
-6462.542766	4746.343167	452.324219	127.406281
-6462.542766	4746.343167	451.060547	139.432419
-6462.542766	4746.343167	449.796875	77.880325
-6462.542766	4746.343167	448.532227	100.399940
-6462.542766	4746.343167	447.267578	41.487625
-6462.542766	4746.343167	446.002930	35.100105
-6462.542766	4746.343167	444.737305	173.077301
-6462.542766	4746.343167	443.471680	114.145660
-6462.542766	4746.343167	442.206055	86.709709
-6462.542766	4746.343167	440.940430	145.836563
-6462.542766	4746.343167	439.673828	34.439312
-6462.542766	4746.343167	438.407227	9.600396
-6462.542766	4746.343167	437.140625	-107.006851
-6462.542766	4746.343167	435.873047	-27.011065
-6462.542766	4746.343167	434.605469	34.579922
-6462.542766	4746.343167	433.337891	-27.020226
-6462.542766	4746.343167	432.070313	34.484604
-6462.542766	4746.343167	430.801758	19.984915
-6462.542766	4746.343167	429.533203	196.585464
-6462.542766	4746.343167	428.264648	121.778931
-6462.542766	4746.343167	426.996094	83.604507
-6462.542766	4746.343167	425.726563	152.680298
-6462.542766	4746.343167	424.457031	85.653107
-6462.542766	4746.343167	423.186523	76.145416
-6462.542766	4746.343167	421.916992	53.518757
-6462.542766	4746.343167	420.646484	2.091991
-6462.542766	4746.343167	419.375977	5.519258
-6462.542766	4746.343167	418.104492	6.272884
-6462.542766	4746.343167	416.833008	148.041824
-6462.542766	4746.343167	415.561523	-55.095238
-6462.542766	4746.343167	414.290039	-7.517181
-6462.542766	4746.343167	413.017578	131.347580
-6462.542766	4746.343167	411.746094	183.939865
-6462.542766	4746.343167	410.472656	4.165465
-6462.542766	4746.343167	409.200195	80.083954
-6462.542766	4746.343167	407.926758	-5.848368
-6462.542766	4746.343167	406.653320	41.175446
-6462.542766	4746.343167	405.379883	30.722050
-6462.542766	4746.343167	404.105469	93.166756
-6462.542766	4746.343167	402.831055	32.986301
-6462.542766	4746.343167	401.556641	-11.639240
-6462.542766	4746.343167	400.282227	172.899536
-6462.542766	4746.343167	399.006836	83.757401
-6462.542766	4746.343167	397.731445	23.178745
-6462.542766	4746.343167	396.456055	110.900284
-6462.542766	4746.343167	395.179688	214.069534
-6462.542766	4746.343167	393.903320	98.462257
-6462.542766	4746.343167	392.626953	-22.438162
-6462.542766	4746.343167	391.350586	106.285370
-6462.542766	4746.343167	390.073242	76.160019
-6462.542766	4746.343167	388.795898	30.290737
-6462.542766	4746.343167	387.518555	38.869106
-6462.542766	4746.343167	386.240234	-25.498203
-6462.542766	4746.343167	384.961914	39.907452
-6462.542766	4746.343167	383.683594	-66.352196
-6462.542766	4746.343167	382.405273	138.918213
-6462.542766	4746.343167	381.125977	125.779762
-6462.542766	4746.343167	379.846680	55.331596
-6462.542766	4746.343167	378.567383	200.138733
-6462.542766	4746.343167	377.287109	41.049118
-6462.542766	4746.343167	376.006836	3.745111
-6462.542766	4746.343167	374.726563	-2.645309
-6462.542766	4746.343167	373.446289	-27.423290
-6462.542766	4746.343167	372.165039	35.713516
-6462.542766	4746.343167	370.883789	70.056099
-6462.542766	4746.343167	369.602539	75.614525
-6462.542766	4746.343167	368.320313	49.803776
-6462.542766	4746.343167	367.039063	36.683552
-6462.542766	4746.343167	365.755859	46.580727
-6462.542766	4746.343167	364.473633	95.023438
-6462.542766	4746.343167	363.190430	-107.978737
-6462.542766	4746.343167	361.907227	105.497795
-6462.542766	4746.343167	360.624023	49.440033
-6462.542766	4746.343167	359.340820	70.686066
-6462.542766	4746.343167	358.056641	-4.130221
-6462.542766	4746.343167	356.772461	-99.955711
-6462.542766	4746.343167	355.487305	-20.304234
-6462.542766	4746.343167	354.202148	108.049011
-6462.542766	4746.343167	352.916992	5.958106
-6462.542766	4746.343167	351.631836	-11.223095
-6462.542766	4746.343167	350.346680	9.941317
-6462.542766	4746.343167	349.060547	10.006149
-6462.542766	4746.343167	347.774414	32.875923
-6462.542766	4746.343167	346.487305	16.559118
-6462.542766	4746.343167	345.200195	25.600273
-6462.542766	4746.343167	343.913086	21.265354
-6462.542766	4746.343167	342.625977	-76.423080
-6462.542766	4746.343167	341.338867	-48.183708
-6462.542766	4746.343167	340.050781	-82.365875
-6462.542766	4746.343167	338.762695	-6.199510
-6462.542766	4746.343167	337.473633	46.185623
-6462.542766	4746.343167	336.184570	69.647949
-6462.542766	4746.343167	334.895508	22.969847
-6462.542766	4746.343167	333.606445	14.367530
-6462.542766	4746.343167	332.317383	-46.334198
-6462.542766	4746.343167	331.027344	5.650951
-6462.542766	4746.343167	329.736328	-51.145718
-6462.542766	4746.343167	328.446289	110.207397
-6462.542766	4746.343167	327.155273	-99.703941
-6462.542766	4746.343167	325.864258	-19.513838
-6462.542766	4746.343167	324.573242	-127.804123
-6462.542766	4746.343167	323.281250	-15.642044
-6462.542766	4746.343167	321.989258	23.757027
-6462.542766	4746.343167	320.697266	5.843730
-6462.542766	4746.343167	319.405273	-10.259739
-6462.542766	4746.343167	318.112305	34.495129
-6462.542766	4746.343167	316.819336	-62.846436
-6462.542766	4746.343167	315.526367	-89.067581
-6462.542766	4746.343167	314.232422	35.331860
-6462.542766	4746.343167	312.938477	38.167362
-6462.542766	4746.343167	311.644531	-59.971298
-6462.542766	4746.343167	310.349609	-2.490374
-6462.542766	4746.343167	309.054688	87.381950
-6462.542766	4746.343167	307.759766	24.950148
-6462.542766	4746.343167	306.464844	33.364002
-6462.542766	4746.343167	305.168945	27.932554
-6462.542766	4746.343167	303.873047	-9.273315
-6462.542766	4746.343167	302.577148	124.171349
-6462.542766	4746.343167	301.281250	125.836601
-6462.542766	4746.343167	299.984375	141.745941
