#X		#Y		#Wave		#Intensity
-7439.250532	4082.436167	1999.946289	39.034649
-7439.250532	4082.436167	1998.981445	97.916206
-7439.250532	4082.436167	1998.017578	110.622093
-7439.250532	4082.436167	1997.052734	-12.677964
-7439.250532	4082.436167	1996.088867	-91.038475
-7439.250532	4082.436167	1995.124023	-164.135818
-7439.250532	4082.436167	1994.159180	8.264601
-7439.250532	4082.436167	1993.193359	-24.665775
-7439.250532	4082.436167	1992.228516	71.420235
-7439.250532	4082.436167	1991.262695	6.819810
-7439.250532	4082.436167	1990.296875	-111.961464
-7439.250532	4082.436167	1989.331055	101.112579
-7439.250532	4082.436167	1988.365234	-106.241066
-7439.250532	4082.436167	1987.398438	-58.527283
-7439.250532	4082.436167	1986.432617	28.953590
-7439.250532	4082.436167	1985.465820	30.065958
-7439.250532	4082.436167	1984.499023	-87.285728
-7439.250532	4082.436167	1983.532227	-78.344688
-7439.250532	4082.436167	1982.565430	-12.382310
-7439.250532	4082.436167	1981.597656	36.438396
-7439.250532	4082.436167	1980.629883	233.633926
-7439.250532	4082.436167	1979.662109	102.433289
-7439.250532	4082.436167	1978.694336	-1.394343
-7439.250532	4082.436167	1977.726563	-30.960510
-7439.250532	4082.436167	1976.758789	72.931969
-7439.250532	4082.436167	1975.790039	-37.788342
-7439.250532	4082.436167	1974.821289	167.517868
-7439.250532	4082.436167	1973.852539	91.632111
-7439.250532	4082.436167	1972.883789	70.167114
-7439.250532	4082.436167	1971.915039	48.832378
-7439.250532	4082.436167	1970.945313	-179.497955
-7439.250532	4082.436167	1969.975586	117.470596
-7439.250532	4082.436167	1969.005859	-9.512083
-7439.250532	4082.436167	1968.036133	166.770813
-7439.250532	4082.436167	1967.066406	212.499084
-7439.250532	4082.436167	1966.096680	-61.943245
-7439.250532	4082.436167	1965.125977	114.530159
-7439.250532	4082.436167	1964.155273	17.682531
-7439.250532	4082.436167	1963.184570	61.288834
-7439.250532	4082.436167	1962.213867	-50.126862
-7439.250532	4082.436167	1961.242188	47.769573
-7439.250532	4082.436167	1960.271484	57.110146
-7439.250532	4082.436167	1959.299805	17.307730
-7439.250532	4082.436167	1958.328125	-88.833298
-7439.250532	4082.436167	1957.356445	-116.180954
-7439.250532	4082.436167	1956.384766	114.715210
-7439.250532	4082.436167	1955.412109	16.149200
-7439.250532	4082.436167	1954.439453	60.226307
-7439.250532	4082.436167	1953.467773	-18.546915
-7439.250532	4082.436167	1952.495117	-55.480824
-7439.250532	4082.436167	1951.521484	207.339447
-7439.250532	4082.436167	1950.548828	67.288956
-7439.250532	4082.436167	1949.575195	-28.476381
-7439.250532	4082.436167	1948.601563	-156.097107
-7439.250532	4082.436167	1947.627930	-77.447212
-7439.250532	4082.436167	1946.654297	-62.617401
-7439.250532	4082.436167	1945.680664	-123.843803
-7439.250532	4082.436167	1944.706055	-50.093880
-7439.250532	4082.436167	1943.732422	119.303543
-7439.250532	4082.436167	1942.757813	153.764023
-7439.250532	4082.436167	1941.783203	151.440369
-7439.250532	4082.436167	1940.807617	46.160328
-7439.250532	4082.436167	1939.833008	-41.921291
-7439.250532	4082.436167	1938.857422	73.435616
-7439.250532	4082.436167	1937.881836	73.590134
-7439.250532	4082.436167	1936.906250	-124.686401
-7439.250532	4082.436167	1935.930664	-6.938005
-7439.250532	4082.436167	1934.955078	81.373390
-7439.250532	4082.436167	1933.978516	-146.193527
-7439.250532	4082.436167	1933.001953	98.758736
-7439.250532	4082.436167	1932.025391	152.706924
-7439.250532	4082.436167	1931.048828	-6.267689
-7439.250532	4082.436167	1930.072266	103.919167
-7439.250532	4082.436167	1929.094727	135.774643
-7439.250532	4082.436167	1928.118164	11.077504
-7439.250532	4082.436167	1927.140625	-147.824234
-7439.250532	4082.436167	1926.163086	121.135414
-7439.250532	4082.436167	1925.184570	-142.874191
-7439.250532	4082.436167	1924.207031	81.946625
-7439.250532	4082.436167	1923.228516	-86.718170
-7439.250532	4082.436167	1922.250000	-15.944875
-7439.250532	4082.436167	1921.271484	15.694016
-7439.250532	4082.436167	1920.292969	118.108490
-7439.250532	4082.436167	1919.314453	-72.528725
-7439.250532	4082.436167	1918.334961	-106.897713
-7439.250532	4082.436167	1917.355469	-38.780476
-7439.250532	4082.436167	1916.375977	-48.807865
-7439.250532	4082.436167	1915.396484	-27.151697
-7439.250532	4082.436167	1914.416992	172.526016
-7439.250532	4082.436167	1913.436523	69.683884
-7439.250532	4082.436167	1912.457031	-67.295097
-7439.250532	4082.436167	1911.476563	56.592140
-7439.250532	4082.436167	1910.496094	-95.034492
-7439.250532	4082.436167	1909.515625	-102.863190
-7439.250532	4082.436167	1908.534180	-42.506615
-7439.250532	4082.436167	1907.552734	51.890701
-7439.250532	4082.436167	1906.572266	87.755730
-7439.250532	4082.436167	1905.590820	-0.626487
-7439.250532	4082.436167	1904.608398	76.541267
-7439.250532	4082.436167	1903.626953	117.122520
-7439.250532	4082.436167	1902.644531	-41.924984
-7439.250532	4082.436167	1901.663086	18.041805
-7439.250532	4082.436167	1900.680664	31.716846
-7439.250532	4082.436167	1899.698242	-122.494957
-7439.250532	4082.436167	1898.714844	282.656891
-7439.250532	4082.436167	1897.732422	116.207535
-7439.250532	4082.436167	1896.749023	25.136805
-7439.250532	4082.436167	1895.765625	138.223923
-7439.250532	4082.436167	1894.782227	-47.686577
-7439.250532	4082.436167	1893.798828	-73.214043
-7439.250532	4082.436167	1892.814453	-1.609055
-7439.250532	4082.436167	1891.831055	130.640793
-7439.250532	4082.436167	1890.846680	92.811813
-7439.250532	4082.436167	1889.862305	93.794006
-7439.250532	4082.436167	1888.877930	-7.222269
-7439.250532	4082.436167	1887.892578	10.672439
-7439.250532	4082.436167	1886.908203	84.323151
-7439.250532	4082.436167	1885.922852	-21.630903
-7439.250532	4082.436167	1884.937500	-120.315002
-7439.250532	4082.436167	1883.952148	-243.262314
-7439.250532	4082.436167	1882.965820	72.658157
-7439.250532	4082.436167	1881.980469	-33.405266
-7439.250532	4082.436167	1880.994141	-52.219975
-7439.250532	4082.436167	1880.007813	127.636925
-7439.250532	4082.436167	1879.021484	256.499542
-7439.250532	4082.436167	1878.035156	75.196167
-7439.250532	4082.436167	1877.047852	-86.711746
-7439.250532	4082.436167	1876.061523	92.828125
-7439.250532	4082.436167	1875.074219	-78.800713
-7439.250532	4082.436167	1874.086914	102.996887
-7439.250532	4082.436167	1873.098633	-27.520458
-7439.250532	4082.436167	1872.111328	-70.925995
-7439.250532	4082.436167	1871.123047	96.111725
-7439.250532	4082.436167	1870.135742	-32.050644
-7439.250532	4082.436167	1869.147461	18.746305
-7439.250532	4082.436167	1868.158203	79.149216
-7439.250532	4082.436167	1867.169922	-12.814067
-7439.250532	4082.436167	1866.180664	-75.784157
-7439.250532	4082.436167	1865.192383	27.965221
-7439.250532	4082.436167	1864.203125	126.798195
-7439.250532	4082.436167	1863.213867	-66.739288
-7439.250532	4082.436167	1862.223633	-149.151657
-7439.250532	4082.436167	1861.234375	-64.961273
-7439.250532	4082.436167	1860.244141	115.724968
-7439.250532	4082.436167	1859.253906	4.229609
-7439.250532	4082.436167	1858.263672	189.575470
-7439.250532	4082.436167	1857.273438	29.765890
-7439.250532	4082.436167	1856.282227	111.217117
-7439.250532	4082.436167	1855.291992	-53.425678
-7439.250532	4082.436167	1854.300781	-63.710258
-7439.250532	4082.436167	1853.309570	106.800453
-7439.250532	4082.436167	1852.317383	53.015743
-7439.250532	4082.436167	1851.326172	4.033284
-7439.250532	4082.436167	1850.333984	24.911455
-7439.250532	4082.436167	1849.342773	-173.500946
-7439.250532	4082.436167	1848.350586	114.702965
-7439.250532	4082.436167	1847.357422	-30.747005
-7439.250532	4082.436167	1846.365234	189.823380
-7439.250532	4082.436167	1845.372070	138.229965
-7439.250532	4082.436167	1844.379883	-96.312820
-7439.250532	4082.436167	1843.386719	1.298811
-7439.250532	4082.436167	1842.393555	48.310013
-7439.250532	4082.436167	1841.399414	128.945160
-7439.250532	4082.436167	1840.406250	187.869141
-7439.250532	4082.436167	1839.412109	-130.810577
-7439.250532	4082.436167	1838.417969	-23.844809
-7439.250532	4082.436167	1837.423828	61.412422
-7439.250532	4082.436167	1836.429688	175.444016
-7439.250532	4082.436167	1835.434570	-107.086403
-7439.250532	4082.436167	1834.440430	-62.803570
-7439.250532	4082.436167	1833.445313	-57.003731
-7439.250532	4082.436167	1832.450195	71.242195
-7439.250532	4082.436167	1831.454102	69.745201
-7439.250532	4082.436167	1830.458984	111.433517
-7439.250532	4082.436167	1829.462891	57.063389
-7439.250532	4082.436167	1828.466797	69.877502
-7439.250532	4082.436167	1827.470703	-104.488907
-7439.250532	4082.436167	1826.474609	-36.533424
-7439.250532	4082.436167	1825.478516	43.359661
-7439.250532	4082.436167	1824.481445	-32.675625
-7439.250532	4082.436167	1823.484375	-20.001921
-7439.250532	4082.436167	1822.487305	-151.183228
-7439.250532	4082.436167	1821.490234	153.839523
-7439.250532	4082.436167	1820.493164	39.393936
-7439.250532	4082.436167	1819.495117	-55.870464
-7439.250532	4082.436167	1818.498047	95.587486
-7439.250532	4082.436167	1817.500000	-95.494194
-7439.250532	4082.436167	1816.500977	-114.138557
-7439.250532	4082.436167	1815.502930	27.593149
-7439.250532	4082.436167	1814.504883	37.608212
-7439.250532	4082.436167	1813.505859	54.772804
-7439.250532	4082.436167	1812.506836	93.441322
-7439.250532	4082.436167	1811.507813	17.251898
-7439.250532	4082.436167	1810.508789	113.266495
-7439.250532	4082.436167	1809.508789	168.570908
-7439.250532	4082.436167	1808.508789	-103.697166
-7439.250532	4082.436167	1807.508789	-210.954315
-7439.250532	4082.436167	1806.508789	-227.377853
-7439.250532	4082.436167	1805.508789	-64.611870
-7439.250532	4082.436167	1804.508789	59.849895
-7439.250532	4082.436167	1803.507813	-23.554338
-7439.250532	4082.436167	1802.506836	-169.034470
-7439.250532	4082.436167	1801.505859	7.843520
-7439.250532	4082.436167	1800.504883	101.087822
-7439.250532	4082.436167	1799.502930	17.662954
-7439.250532	4082.436167	1798.501953	-34.724163
-7439.250532	4082.436167	1797.500000	34.562092
-7439.250532	4082.436167	1796.498047	89.494522
-7439.250532	4082.436167	1795.496094	-146.563202
-7439.250532	4082.436167	1794.493164	-84.499229
-7439.250532	4082.436167	1793.491211	-208.420944
-7439.250532	4082.436167	1792.488281	29.979952
-7439.250532	4082.436167	1791.485352	106.228081
-7439.250532	4082.436167	1790.482422	-122.540466
-7439.250532	4082.436167	1789.478516	56.108364
-7439.250532	4082.436167	1788.475586	-79.705177
-7439.250532	4082.436167	1787.471680	-34.509850
-7439.250532	4082.436167	1786.467773	-3.628654
-7439.250532	4082.436167	1785.463867	-32.280983
-7439.250532	4082.436167	1784.459961	-184.689163
-7439.250532	4082.436167	1783.455078	60.312210
-7439.250532	4082.436167	1782.450195	-211.031479
-7439.250532	4082.436167	1781.445313	40.993958
-7439.250532	4082.436167	1780.440430	97.909325
-7439.250532	4082.436167	1779.435547	-18.775288
-7439.250532	4082.436167	1778.429688	38.105453
-7439.250532	4082.436167	1777.424805	-73.789955
-7439.250532	4082.436167	1776.418945	23.455757
-7439.250532	4082.436167	1775.413086	61.258904
-7439.250532	4082.436167	1774.406250	42.026962
-7439.250532	4082.436167	1773.400391	-57.951649
-7439.250532	4082.436167	1772.393555	-169.777313
-7439.250532	4082.436167	1771.386719	79.283684
-7439.250532	4082.436167	1770.379883	-136.980331
-7439.250532	4082.436167	1769.373047	31.276630
-7439.250532	4082.436167	1768.365234	218.440475
-7439.250532	4082.436167	1767.358398	78.161026
-7439.250532	4082.436167	1766.350586	73.115128
-7439.250532	4082.436167	1765.342773	-114.526993
-7439.250532	4082.436167	1764.334961	157.844284
-7439.250532	4082.436167	1763.326172	136.169525
-7439.250532	4082.436167	1762.318359	5.480398
-7439.250532	4082.436167	1761.309570	-122.798271
-7439.250532	4082.436167	1760.300781	120.910004
-7439.250532	4082.436167	1759.291016	-9.725724
-7439.250532	4082.436167	1758.282227	-118.999954
-7439.250532	4082.436167	1757.272461	-119.326767
-7439.250532	4082.436167	1756.262695	3.438684
-7439.250532	4082.436167	1755.252930	97.750694
-7439.250532	4082.436167	1754.243164	40.575268
-7439.250532	4082.436167	1753.233398	-104.122551
-7439.250532	4082.436167	1752.222656	80.026413
-7439.250532	4082.436167	1751.211914	112.740250
-7439.250532	4082.436167	1750.201172	107.604095
-7439.250532	4082.436167	1749.190430	102.466751
-7439.250532	4082.436167	1748.179688	102.053970
-7439.250532	4082.436167	1747.167969	16.559126
-7439.250532	4082.436167	1746.156250	37.417088
-7439.250532	4082.436167	1745.144531	25.192463
-7439.250532	4082.436167	1744.132813	-10.649756
-7439.250532	4082.436167	1743.121094	210.912064
-7439.250532	4082.436167	1742.108398	106.570290
-7439.250532	4082.436167	1741.095703	-115.759743
-7439.250532	4082.436167	1740.083008	-14.678499
-7439.250532	4082.436167	1739.070313	-36.339157
-7439.250532	4082.436167	1738.057617	38.732037
-7439.250532	4082.436167	1737.043945	-72.569443
-7439.250532	4082.436167	1736.030273	110.951996
-7439.250532	4082.436167	1735.016602	91.630440
-7439.250532	4082.436167	1734.002930	105.316605
-7439.250532	4082.436167	1732.989258	-31.846840
-7439.250532	4082.436167	1731.974609	189.219162
-7439.250532	4082.436167	1730.959961	73.290276
-7439.250532	4082.436167	1729.945313	75.181999
-7439.250532	4082.436167	1728.930664	74.715744
-7439.250532	4082.436167	1727.916016	-43.484398
-7439.250532	4082.436167	1726.900391	-65.120621
-7439.250532	4082.436167	1725.885742	209.826004
-7439.250532	4082.436167	1724.870117	-96.603706
-7439.250532	4082.436167	1723.853516	154.707489
-7439.250532	4082.436167	1722.837891	238.903549
-7439.250532	4082.436167	1721.822266	139.613297
-7439.250532	4082.436167	1720.805664	-107.787384
-7439.250532	4082.436167	1719.789063	-84.723068
-7439.250532	4082.436167	1718.772461	48.810219
-7439.250532	4082.436167	1717.754883	81.232315
-7439.250532	4082.436167	1716.738281	22.006456
-7439.250532	4082.436167	1715.720703	-34.851955
-7439.250532	4082.436167	1714.703125	-23.573191
-7439.250532	4082.436167	1713.685547	6.487333
-7439.250532	4082.436167	1712.667969	-116.077560
-7439.250532	4082.436167	1711.649414	26.662714
-7439.250532	4082.436167	1710.630859	9.752278
-7439.250532	4082.436167	1709.612305	316.673615
-7439.250532	4082.436167	1708.593750	69.794891
-7439.250532	4082.436167	1707.575195	188.933563
-7439.250532	4082.436167	1706.555664	71.156921
-7439.250532	4082.436167	1705.536133	117.558884
-7439.250532	4082.436167	1704.516602	213.173660
-7439.250532	4082.436167	1703.497070	196.245422
-7439.250532	4082.436167	1702.477539	-10.491428
-7439.250532	4082.436167	1701.457031	54.631001
-7439.250532	4082.436167	1700.437500	222.802429
-7439.250532	4082.436167	1699.416992	152.015808
-7439.250532	4082.436167	1698.395508	263.899078
-7439.250532	4082.436167	1697.375000	118.215240
-7439.250532	4082.436167	1696.354492	113.029579
-7439.250532	4082.436167	1695.333008	-44.273201
-7439.250532	4082.436167	1694.311523	343.660553
-7439.250532	4082.436167	1693.290039	291.645294
-7439.250532	4082.436167	1692.267578	377.642853
-7439.250532	4082.436167	1691.246094	269.518707
-7439.250532	4082.436167	1690.223633	341.460144
-7439.250532	4082.436167	1689.201172	125.854034
-7439.250532	4082.436167	1688.178711	359.055847
-7439.250532	4082.436167	1687.155273	288.400452
-7439.250532	4082.436167	1686.132813	336.922241
-7439.250532	4082.436167	1685.109375	378.414978
-7439.250532	4082.436167	1684.085938	426.898315
-7439.250532	4082.436167	1683.062500	489.372253
-7439.250532	4082.436167	1682.039063	570.497925
-7439.250532	4082.436167	1681.014648	632.917908
-7439.250532	4082.436167	1679.990234	450.295288
-7439.250532	4082.436167	1678.965820	249.079361
-7439.250532	4082.436167	1677.941406	337.185150
-7439.250532	4082.436167	1676.916992	469.568695
-7439.250532	4082.436167	1675.891602	597.235840
-7439.250532	4082.436167	1674.866211	489.395660
-7439.250532	4082.436167	1673.840820	612.348877
-7439.250532	4082.436167	1672.815430	399.681549
-7439.250532	4082.436167	1671.790039	695.019531
-7439.250532	4082.436167	1670.763672	619.855103
-7439.250532	4082.436167	1669.737305	668.157959
-7439.250532	4082.436167	1668.710938	609.329468
-7439.250532	4082.436167	1667.684570	874.132446
-7439.250532	4082.436167	1666.658203	894.428162
-7439.250532	4082.436167	1665.630859	837.914795
-7439.250532	4082.436167	1664.603516	1028.063232
-7439.250532	4082.436167	1663.576172	1004.115479
-7439.250532	4082.436167	1662.548828	808.062927
-7439.250532	4082.436167	1661.520508	916.715088
-7439.250532	4082.436167	1660.493164	1199.702881
-7439.250532	4082.436167	1659.464844	1082.758667
-7439.250532	4082.436167	1658.436523	998.398193
-7439.250532	4082.436167	1657.408203	1069.754150
-7439.250532	4082.436167	1656.378906	1436.123657
-7439.250532	4082.436167	1655.350586	1340.132446
-7439.250532	4082.436167	1654.321289	1262.753418
-7439.250532	4082.436167	1653.291992	1628.876099
-7439.250532	4082.436167	1652.261719	1686.109985
-7439.250532	4082.436167	1651.232422	1910.433594
-7439.250532	4082.436167	1650.202148	1930.465088
-7439.250532	4082.436167	1649.171875	1862.327515
-7439.250532	4082.436167	1648.141602	1984.424316
-7439.250532	4082.436167	1647.111328	2016.027954
-7439.250532	4082.436167	1646.080078	2068.485107
-7439.250532	4082.436167	1645.049805	1942.421753
-7439.250532	4082.436167	1644.018555	1974.014771
-7439.250532	4082.436167	1642.987305	1808.622559
-7439.250532	4082.436167	1641.955078	1854.130005
-7439.250532	4082.436167	1640.923828	1610.068237
-7439.250532	4082.436167	1639.891602	1769.081909
-7439.250532	4082.436167	1638.859375	1525.130127
-7439.250532	4082.436167	1637.827148	1535.935425
-7439.250532	4082.436167	1636.794922	1539.793823
-7439.250532	4082.436167	1635.761719	1539.019897
-7439.250532	4082.436167	1634.729492	1535.937866
-7439.250532	4082.436167	1633.696289	1419.502808
-7439.250532	4082.436167	1632.662109	1430.319458
-7439.250532	4082.436167	1631.628906	1619.191284
-7439.250532	4082.436167	1630.594727	1408.019897
-7439.250532	4082.436167	1629.561523	1481.249756
-7439.250532	4082.436167	1628.527344	1279.434448
-7439.250532	4082.436167	1627.493164	1225.579102
-7439.250532	4082.436167	1626.458008	1247.978638
-7439.250532	4082.436167	1625.423828	1422.814575
-7439.250532	4082.436167	1624.388672	1253.502441
-7439.250532	4082.436167	1623.353516	1402.874023
-7439.250532	4082.436167	1622.318359	1242.868774
-7439.250532	4082.436167	1621.282227	1094.464722
-7439.250532	4082.436167	1620.247070	1190.714233
-7439.250532	4082.436167	1619.210938	1153.119629
-7439.250532	4082.436167	1618.174805	997.907410
-7439.250532	4082.436167	1617.137695	1244.020142
-7439.250532	4082.436167	1616.101563	992.017395
-7439.250532	4082.436167	1615.064453	1385.575195
-7439.250532	4082.436167	1614.027344	1278.845825
-7439.250532	4082.436167	1612.990234	1234.379150
-7439.250532	4082.436167	1611.953125	1201.450684
-7439.250532	4082.436167	1610.916016	1357.420044
-7439.250532	4082.436167	1609.877930	1299.152588
-7439.250532	4082.436167	1608.839844	1432.020264
-7439.250532	4082.436167	1607.801758	1433.620972
-7439.250532	4082.436167	1606.763672	1172.838623
-7439.250532	4082.436167	1605.724609	1330.975220
-7439.250532	4082.436167	1604.685547	1528.165283
-7439.250532	4082.436167	1603.646484	1582.665161
-7439.250532	4082.436167	1602.607422	1411.763794
-7439.250532	4082.436167	1601.568359	1434.081421
-7439.250532	4082.436167	1600.528320	1624.215088
-7439.250532	4082.436167	1599.489258	1517.774902
-7439.250532	4082.436167	1598.449219	1551.560181
-7439.250532	4082.436167	1597.408203	1539.381592
-7439.250532	4082.436167	1596.368164	1348.037720
-7439.250532	4082.436167	1595.327148	1289.979370
-7439.250532	4082.436167	1594.287109	1493.724731
-7439.250532	4082.436167	1593.246094	1561.939453
-7439.250532	4082.436167	1592.204102	1627.835571
-7439.250532	4082.436167	1591.163086	1452.749756
-7439.250532	4082.436167	1590.121094	1479.646484
-7439.250532	4082.436167	1589.079102	1497.362549
-7439.250532	4082.436167	1588.037109	1453.151978
-7439.250532	4082.436167	1586.995117	1248.446533
-7439.250532	4082.436167	1585.953125	1367.093262
-7439.250532	4082.436167	1584.910156	1270.230103
-7439.250532	4082.436167	1583.867188	1393.419556
-7439.250532	4082.436167	1582.824219	1500.528931
-7439.250532	4082.436167	1581.781250	1538.877686
-7439.250532	4082.436167	1580.737305	1245.105103
-7439.250532	4082.436167	1579.693359	1414.028320
-7439.250532	4082.436167	1578.649414	1399.731445
-7439.250532	4082.436167	1577.605469	1467.855469
-7439.250532	4082.436167	1576.561523	1485.609497
-7439.250532	4082.436167	1575.516602	1322.596558
-7439.250532	4082.436167	1574.472656	1351.827881
-7439.250532	4082.436167	1573.427734	1303.285767
-7439.250532	4082.436167	1572.381836	1293.645264
-7439.250532	4082.436167	1571.336914	1357.184082
-7439.250532	4082.436167	1570.291016	1205.826172
-7439.250532	4082.436167	1569.246094	1177.956665
-7439.250532	4082.436167	1568.200195	1380.893799
-7439.250532	4082.436167	1567.153320	1026.317627
-7439.250532	4082.436167	1566.107422	1334.294922
-7439.250532	4082.436167	1565.060547	1281.335449
-7439.250532	4082.436167	1564.013672	1205.573730
-7439.250532	4082.436167	1562.966797	1390.092041
-7439.250532	4082.436167	1561.919922	1127.208008
-7439.250532	4082.436167	1560.872070	1199.875610
-7439.250532	4082.436167	1559.825195	1231.461914
-7439.250532	4082.436167	1558.777344	1237.953735
-7439.250532	4082.436167	1557.729492	1007.276489
-7439.250532	4082.436167	1556.680664	870.183960
-7439.250532	4082.436167	1555.632813	883.617554
-7439.250532	4082.436167	1554.583984	760.303345
-7439.250532	4082.436167	1553.535156	908.223328
-7439.250532	4082.436167	1552.486328	851.049683
-7439.250532	4082.436167	1551.436523	878.190491
-7439.250532	4082.436167	1550.387695	866.620300
-7439.250532	4082.436167	1549.337891	775.370850
-7439.250532	4082.436167	1548.288086	800.274841
-7439.250532	4082.436167	1547.238281	659.029785
-7439.250532	4082.436167	1546.187500	567.915833
-7439.250532	4082.436167	1545.136719	374.469788
-7439.250532	4082.436167	1544.086914	513.228149
-7439.250532	4082.436167	1543.035156	488.193481
-7439.250532	4082.436167	1541.984375	588.247498
-7439.250532	4082.436167	1540.933594	686.005554
-7439.250532	4082.436167	1539.881836	626.905212
-7439.250532	4082.436167	1538.830078	501.941986
-7439.250532	4082.436167	1537.778320	472.470673
-7439.250532	4082.436167	1536.725586	311.272675
-7439.250532	4082.436167	1535.673828	443.135559
-7439.250532	4082.436167	1534.621094	422.825073
-7439.250532	4082.436167	1533.568359	352.595428
-7439.250532	4082.436167	1532.515625	402.709625
-7439.250532	4082.436167	1531.461914	357.508728
-7439.250532	4082.436167	1530.409180	359.992065
-7439.250532	4082.436167	1529.355469	317.122803
-7439.250532	4082.436167	1528.301758	231.197098
-7439.250532	4082.436167	1527.247070	285.911591
-7439.250532	4082.436167	1526.193359	163.790863
-7439.250532	4082.436167	1525.138672	320.536499
-7439.250532	4082.436167	1524.083984	144.106735
-7439.250532	4082.436167	1523.029297	198.875854
-7439.250532	4082.436167	1521.974609	108.663483
-7439.250532	4082.436167	1520.918945	43.419281
-7439.250532	4082.436167	1519.863281	-71.594887
-7439.250532	4082.436167	1518.807617	-179.749832
-7439.250532	4082.436167	1517.751953	60.743801
-7439.250532	4082.436167	1516.696289	56.751511
-7439.250532	4082.436167	1515.639648	-39.986866
-7439.250532	4082.436167	1514.583008	-41.650982
-7439.250532	4082.436167	1513.526367	-131.500320
-7439.250532	4082.436167	1512.469727	-148.928131
-7439.250532	4082.436167	1511.412109	-17.111513
-7439.250532	4082.436167	1510.355469	94.334839
-7439.250532	4082.436167	1509.297852	22.703993
-7439.250532	4082.436167	1508.240234	3.095458
-7439.250532	4082.436167	1507.181641	-124.916756
-7439.250532	4082.436167	1506.124023	-187.351852
-7439.250532	4082.436167	1505.065430	-191.024963
-7439.250532	4082.436167	1504.006836	-147.259521
-7439.250532	4082.436167	1502.948242	-139.602112
-7439.250532	4082.436167	1501.888672	-170.287201
-7439.250532	4082.436167	1500.830078	-45.243401
-7439.250532	4082.436167	1499.770508	-166.117630
-7439.250532	4082.436167	1498.710938	-162.865295
-7439.250532	4082.436167	1497.650391	-22.032265
-7439.250532	4082.436167	1496.590820	-79.627449
-7439.250532	4082.436167	1495.530273	56.681938
-7439.250532	4082.436167	1494.469727	71.267548
-7439.250532	4082.436167	1493.409180	135.447052
-7439.250532	4082.436167	1492.348633	-57.186485
-7439.250532	4082.436167	1491.287109	85.883728
-7439.250532	4082.436167	1490.225586	53.279224
-7439.250532	4082.436167	1489.164063	-85.099312
-7439.250532	4082.436167	1488.102539	-27.556286
-7439.250532	4082.436167	1487.041016	187.532608
-7439.250532	4082.436167	1485.978516	40.301517
-7439.250532	4082.436167	1484.916016	244.168686
-7439.250532	4082.436167	1483.853516	209.447876
-7439.250532	4082.436167	1482.791016	273.789764
-7439.250532	4082.436167	1481.727539	389.851074
-7439.250532	4082.436167	1480.664063	85.571426
-7439.250532	4082.436167	1479.600586	-45.492271
-7439.250532	4082.436167	1478.537109	254.935669
-7439.250532	4082.436167	1477.473633	380.039093
-7439.250532	4082.436167	1476.409180	168.287415
-7439.250532	4082.436167	1475.344727	356.334900
-7439.250532	4082.436167	1474.280273	611.606628
-7439.250532	4082.436167	1473.215820	424.722046
-7439.250532	4082.436167	1472.151367	397.335724
-7439.250532	4082.436167	1471.085938	351.925964
-7439.250532	4082.436167	1470.020508	405.477936
-7439.250532	4082.436167	1468.955078	514.768311
-7439.250532	4082.436167	1467.888672	671.397583
-7439.250532	4082.436167	1466.823242	449.211487
-7439.250532	4082.436167	1465.756836	583.306274
-7439.250532	4082.436167	1464.690430	679.402344
-7439.250532	4082.436167	1463.624023	495.899353
-7439.250532	4082.436167	1462.556641	790.600098
-7439.250532	4082.436167	1461.490234	607.252319
-7439.250532	4082.436167	1460.422852	627.341248
-7439.250532	4082.436167	1459.355469	629.681885
-7439.250532	4082.436167	1458.287109	798.865234
-7439.250532	4082.436167	1457.219727	712.771484
-7439.250532	4082.436167	1456.151367	810.843323
-7439.250532	4082.436167	1455.083008	815.561462
-7439.250532	4082.436167	1454.014648	768.668335
-7439.250532	4082.436167	1452.945313	1065.177979
-7439.250532	4082.436167	1451.876953	971.692932
-7439.250532	4082.436167	1450.807617	682.481445
-7439.250532	4082.436167	1449.738281	684.062012
-7439.250532	4082.436167	1448.668945	827.890076
-7439.250532	4082.436167	1447.598633	686.336304
-7439.250532	4082.436167	1446.528320	907.029480
-7439.250532	4082.436167	1445.458008	768.302002
-7439.250532	4082.436167	1444.387695	628.256531
-7439.250532	4082.436167	1443.317383	846.202942
-7439.250532	4082.436167	1442.246094	748.764038
-7439.250532	4082.436167	1441.174805	699.683655
-7439.250532	4082.436167	1440.103516	816.153564
-7439.250532	4082.436167	1439.032227	738.993164
-7439.250532	4082.436167	1437.960938	862.542664
-7439.250532	4082.436167	1436.888672	836.944458
-7439.250532	4082.436167	1435.816406	712.594727
-7439.250532	4082.436167	1434.744141	621.074585
-7439.250532	4082.436167	1433.670898	662.839355
-7439.250532	4082.436167	1432.598633	618.445984
-7439.250532	4082.436167	1431.525391	531.959106
-7439.250532	4082.436167	1430.452148	616.294922
-7439.250532	4082.436167	1429.378906	535.974182
-7439.250532	4082.436167	1428.304688	305.863342
-7439.250532	4082.436167	1427.231445	553.727112
-7439.250532	4082.436167	1426.157227	618.468262
-7439.250532	4082.436167	1425.083008	385.062469
-7439.250532	4082.436167	1424.007813	299.322632
-7439.250532	4082.436167	1422.933594	387.939880
-7439.250532	4082.436167	1421.858398	318.174683
-7439.250532	4082.436167	1420.783203	376.969360
-7439.250532	4082.436167	1419.708008	381.587708
-7439.250532	4082.436167	1418.631836	227.508926
-7439.250532	4082.436167	1417.555664	275.141907
-7439.250532	4082.436167	1416.479492	214.271042
-7439.250532	4082.436167	1415.403320	99.758736
-7439.250532	4082.436167	1414.327148	429.108063
-7439.250532	4082.436167	1413.250000	196.778885
-7439.250532	4082.436167	1412.173828	358.999451
-7439.250532	4082.436167	1411.096680	395.278168
-7439.250532	4082.436167	1410.018555	400.894623
-7439.250532	4082.436167	1408.941406	277.135345
-7439.250532	4082.436167	1407.863281	250.870407
-7439.250532	4082.436167	1406.785156	284.228943
-7439.250532	4082.436167	1405.707031	361.594849
-7439.250532	4082.436167	1404.628906	220.994614
-7439.250532	4082.436167	1403.549805	304.845459
-7439.250532	4082.436167	1402.470703	92.753906
-7439.250532	4082.436167	1401.391602	133.740555
-7439.250532	4082.436167	1400.312500	409.376770
-7439.250532	4082.436167	1399.233398	123.525948
-7439.250532	4082.436167	1398.153320	416.063538
-7439.250532	4082.436167	1397.073242	103.206116
-7439.250532	4082.436167	1395.993164	151.235046
-7439.250532	4082.436167	1394.913086	251.026352
-7439.250532	4082.436167	1393.832031	214.978134
-7439.250532	4082.436167	1392.750977	152.895660
-7439.250532	4082.436167	1391.669922	63.078793
-7439.250532	4082.436167	1390.588867	31.248287
-7439.250532	4082.436167	1389.506836	131.237946
-7439.250532	4082.436167	1388.425781	118.240723
-7439.250532	4082.436167	1387.343750	251.886124
-7439.250532	4082.436167	1386.261719	135.192947
-7439.250532	4082.436167	1385.178711	491.323334
-7439.250532	4082.436167	1384.096680	458.294037
-7439.250532	4082.436167	1383.013672	270.595245
-7439.250532	4082.436167	1381.930664	466.004425
-7439.250532	4082.436167	1380.846680	509.368347
-7439.250532	4082.436167	1379.763672	277.923187
-7439.250532	4082.436167	1378.679688	561.577454
-7439.250532	4082.436167	1377.595703	534.220642
-7439.250532	4082.436167	1376.511719	396.114441
-7439.250532	4082.436167	1375.427734	585.760864
-7439.250532	4082.436167	1374.342773	409.575378
-7439.250532	4082.436167	1373.257813	310.905212
-7439.250532	4082.436167	1372.172852	374.996490
-7439.250532	4082.436167	1371.087891	314.292542
-7439.250532	4082.436167	1370.001953	282.650391
-7439.250532	4082.436167	1368.916992	290.201630
-7439.250532	4082.436167	1367.831055	393.050049
-7439.250532	4082.436167	1366.744141	316.363708
-7439.250532	4082.436167	1365.658203	270.943817
-7439.250532	4082.436167	1364.571289	234.975479
-7439.250532	4082.436167	1363.484375	304.823120
-7439.250532	4082.436167	1362.397461	157.536514
-7439.250532	4082.436167	1361.310547	368.196594
-7439.250532	4082.436167	1360.222656	283.025055
-7439.250532	4082.436167	1359.135742	189.486572
-7439.250532	4082.436167	1358.047852	-13.158006
-7439.250532	4082.436167	1356.958984	119.491753
-7439.250532	4082.436167	1355.871094	197.137558
-7439.250532	4082.436167	1354.782227	154.035614
-7439.250532	4082.436167	1353.693359	182.836990
-7439.250532	4082.436167	1352.604492	184.416580
-7439.250532	4082.436167	1351.515625	120.247894
-7439.250532	4082.436167	1350.425781	259.666260
-7439.250532	4082.436167	1349.335938	375.053040
-7439.250532	4082.436167	1348.246094	238.529144
-7439.250532	4082.436167	1347.156250	440.350342
-7439.250532	4082.436167	1346.066406	347.174683
-7439.250532	4082.436167	1344.975586	216.132629
-7439.250532	4082.436167	1343.884766	409.551544
-7439.250532	4082.436167	1342.793945	352.006470
-7439.250532	4082.436167	1341.702148	504.771515
-7439.250532	4082.436167	1340.611328	321.737457
-7439.250532	4082.436167	1339.519531	267.417633
-7439.250532	4082.436167	1338.427734	384.063904
-7439.250532	4082.436167	1337.334961	316.118530
-7439.250532	4082.436167	1336.243164	265.934814
-7439.250532	4082.436167	1335.150391	501.296906
-7439.250532	4082.436167	1334.057617	453.803162
-7439.250532	4082.436167	1332.964844	306.157532
-7439.250532	4082.436167	1331.871094	553.038757
-7439.250532	4082.436167	1330.778320	354.614136
-7439.250532	4082.436167	1329.684570	450.274658
-7439.250532	4082.436167	1328.590820	513.865540
-7439.250532	4082.436167	1327.496094	540.599915
-7439.250532	4082.436167	1326.402344	547.755066
-7439.250532	4082.436167	1325.307617	610.913635
-7439.250532	4082.436167	1324.212891	323.142365
-7439.250532	4082.436167	1323.117188	265.189697
-7439.250532	4082.436167	1322.022461	425.301300
-7439.250532	4082.436167	1320.926758	391.469360
-7439.250532	4082.436167	1319.831055	423.156921
-7439.250532	4082.436167	1318.735352	321.339264
-7439.250532	4082.436167	1317.638672	472.539459
-7439.250532	4082.436167	1316.542969	489.518311
-7439.250532	4082.436167	1315.446289	186.598526
-7439.250532	4082.436167	1314.349609	488.500702
-7439.250532	4082.436167	1313.251953	469.947174
-7439.250532	4082.436167	1312.155273	546.188721
-7439.250532	4082.436167	1311.057617	399.868652
-7439.250532	4082.436167	1309.959961	185.369461
-7439.250532	4082.436167	1308.862305	94.455505
-7439.250532	4082.436167	1307.763672	250.146225
-7439.250532	4082.436167	1306.665039	320.792725
-7439.250532	4082.436167	1305.566406	334.440643
-7439.250532	4082.436167	1304.467773	291.177521
-7439.250532	4082.436167	1303.369141	247.467896
-7439.250532	4082.436167	1302.269531	191.708328
-7439.250532	4082.436167	1301.169922	325.330750
-7439.250532	4082.436167	1300.070313	286.363190
-7439.250532	4082.436167	1298.970703	245.984039
-7439.250532	4082.436167	1297.870117	254.803802
-7439.250532	4082.436167	1296.769531	249.465240
-7439.250532	4082.436167	1295.668945	98.599838
-7439.250532	4082.436167	1294.568359	162.247299
-7439.250532	4082.436167	1293.466797	373.718475
-7439.250532	4082.436167	1292.366211	167.816376
-7439.250532	4082.436167	1291.264648	137.537155
-7439.250532	4082.436167	1290.162109	182.566071
-7439.250532	4082.436167	1289.060547	171.373901
-7439.250532	4082.436167	1287.958008	197.709915
-7439.250532	4082.436167	1286.855469	109.498703
-7439.250532	4082.436167	1285.752930	115.927406
-7439.250532	4082.436167	1284.650391	87.179214
-7439.250532	4082.436167	1283.546875	27.520357
-7439.250532	4082.436167	1282.444336	118.505135
-7439.250532	4082.436167	1281.339844	8.495572
-7439.250532	4082.436167	1280.236328	95.113220
-7439.250532	4082.436167	1279.132813	168.446579
-7439.250532	4082.436167	1278.028320	73.206337
-7439.250532	4082.436167	1276.923828	175.349014
-7439.250532	4082.436167	1275.819336	210.564621
-7439.250532	4082.436167	1274.713867	76.289505
-7439.250532	4082.436167	1273.608398	43.526962
-7439.250532	4082.436167	1272.503906	206.004776
-7439.250532	4082.436167	1271.397461	110.281044
-7439.250532	4082.436167	1270.291992	20.359303
-7439.250532	4082.436167	1269.185547	-144.381287
-7439.250532	4082.436167	1268.080078	114.368637
-7439.250532	4082.436167	1266.972656	83.688980
-7439.250532	4082.436167	1265.866211	31.487215
-7439.250532	4082.436167	1264.759766	-0.441760
-7439.250532	4082.436167	1263.652344	-62.318581
-7439.250532	4082.436167	1262.544922	156.044312
-7439.250532	4082.436167	1261.436523	73.285683
-7439.250532	4082.436167	1260.329102	110.914711
-7439.250532	4082.436167	1259.220703	63.082481
-7439.250532	4082.436167	1258.112305	166.283081
-7439.250532	4082.436167	1257.003906	160.243561
-7439.250532	4082.436167	1255.895508	-121.530663
-7439.250532	4082.436167	1254.786133	-48.599926
-7439.250532	4082.436167	1253.676758	6.704559
-7439.250532	4082.436167	1252.567383	-48.092297
-7439.250532	4082.436167	1251.458008	35.031483
-7439.250532	4082.436167	1250.347656	-78.328087
-7439.250532	4082.436167	1249.237305	-97.146851
-7439.250532	4082.436167	1248.126953	-72.548355
-7439.250532	4082.436167	1247.016602	19.712025
-7439.250532	4082.436167	1245.905273	15.256751
-7439.250532	4082.436167	1244.793945	10.270030
-7439.250532	4082.436167	1243.682617	-132.305283
-7439.250532	4082.436167	1242.571289	-31.618103
-7439.250532	4082.436167	1241.459961	26.031242
-7439.250532	4082.436167	1240.347656	74.150055
-7439.250532	4082.436167	1239.235352	-120.951576
-7439.250532	4082.436167	1238.123047	-90.603256
-7439.250532	4082.436167	1237.009766	30.127148
-7439.250532	4082.436167	1235.897461	-23.022638
-7439.250532	4082.436167	1234.784180	91.536797
-7439.250532	4082.436167	1233.670898	43.688702
-7439.250532	4082.436167	1232.556641	50.165066
-7439.250532	4082.436167	1231.443359	70.744507
-7439.250532	4082.436167	1230.329102	14.396420
-7439.250532	4082.436167	1229.214844	35.073330
-7439.250532	4082.436167	1228.099609	183.225052
-7439.250532	4082.436167	1226.985352	11.504101
-7439.250532	4082.436167	1225.870117	71.872177
-7439.250532	4082.436167	1224.754883	-15.188965
-7439.250532	4082.436167	1223.639648	82.094559
-7439.250532	4082.436167	1222.523438	77.684334
-7439.250532	4082.436167	1221.408203	92.302116
-7439.250532	4082.436167	1220.291992	120.808121
-7439.250532	4082.436167	1219.174805	182.827835
-7439.250532	4082.436167	1218.058594	156.917892
-7439.250532	4082.436167	1216.941406	133.658310
-7439.250532	4082.436167	1215.824219	205.565903
-7439.250532	4082.436167	1214.707031	163.330582
-7439.250532	4082.436167	1213.589844	175.707687
-7439.250532	4082.436167	1212.471680	321.055298
-7439.250532	4082.436167	1211.353516	334.442047
-7439.250532	4082.436167	1210.235352	281.728668
-7439.250532	4082.436167	1209.117188	197.478119
-7439.250532	4082.436167	1207.998047	229.646210
-7439.250532	4082.436167	1206.878906	170.057343
-7439.250532	4082.436167	1205.759766	32.656292
-7439.250532	4082.436167	1204.640625	86.509903
-7439.250532	4082.436167	1203.520508	-70.065659
-7439.250532	4082.436167	1202.401367	69.904099
-7439.250532	4082.436167	1201.281250	-58.734104
-7439.250532	4082.436167	1200.160156	54.650059
-7439.250532	4082.436167	1199.040039	-160.229675
-7439.250532	4082.436167	1197.918945	-135.972855
-7439.250532	4082.436167	1196.797852	-117.536354
-7439.250532	4082.436167	1195.676758	-40.352352
-7439.250532	4082.436167	1194.555664	13.816910
-7439.250532	4082.436167	1193.433594	-142.019043
-7439.250532	4082.436167	1192.311523	-130.811218
-7439.250532	4082.436167	1191.189453	-155.672440
-7439.250532	4082.436167	1190.066406	-100.686958
-7439.250532	4082.436167	1188.944336	-65.882187
-7439.250532	4082.436167	1187.821289	-65.642891
-7439.250532	4082.436167	1186.698242	-131.180786
-7439.250532	4082.436167	1185.574219	-87.537178
-7439.250532	4082.436167	1184.451172	-177.632004
-7439.250532	4082.436167	1183.327148	-62.639133
-7439.250532	4082.436167	1182.203125	-37.518311
-7439.250532	4082.436167	1181.078125	-28.740526
-7439.250532	4082.436167	1179.954102	-110.687607
-7439.250532	4082.436167	1178.829102	-96.443596
-7439.250532	4082.436167	1177.704102	-136.250458
-7439.250532	4082.436167	1176.579102	-73.113556
-7439.250532	4082.436167	1175.453125	-4.082057
-7439.250532	4082.436167	1174.327148	-56.121502
-7439.250532	4082.436167	1173.201172	-15.400358
-7439.250532	4082.436167	1172.075195	-27.982601
-7439.250532	4082.436167	1170.949219	-115.789627
-7439.250532	4082.436167	1169.822266	-184.687027
-7439.250532	4082.436167	1168.695313	-169.483078
-7439.250532	4082.436167	1167.568359	-30.390156
-7439.250532	4082.436167	1166.440430	-10.620592
-7439.250532	4082.436167	1165.313477	-101.871346
-7439.250532	4082.436167	1164.185547	-116.688622
-7439.250532	4082.436167	1163.057617	-109.763435
-7439.250532	4082.436167	1161.928711	-82.431175
-7439.250532	4082.436167	1160.800781	-162.102554
-7439.250532	4082.436167	1159.671875	-119.986015
-7439.250532	4082.436167	1158.541992	-23.969751
-7439.250532	4082.436167	1157.413086	-94.878433
-7439.250532	4082.436167	1156.283203	-81.361992
-7439.250532	4082.436167	1155.154297	-160.397354
-7439.250532	4082.436167	1154.023438	-29.807457
-7439.250532	4082.436167	1152.893555	-110.154068
-7439.250532	4082.436167	1151.763672	-163.406448
-7439.250532	4082.436167	1150.632813	-115.740974
-7439.250532	4082.436167	1149.501953	-196.025162
-7439.250532	4082.436167	1148.370117	-21.212767
-7439.250532	4082.436167	1147.239258	-37.918137
-7439.250532	4082.436167	1146.107422	-61.821766
-7439.250532	4082.436167	1144.975586	-98.862389
-7439.250532	4082.436167	1143.843750	-35.089256
-7439.250532	4082.436167	1142.710938	-166.249161
-7439.250532	4082.436167	1141.578125	-142.255371
-7439.250532	4082.436167	1140.445313	-101.400291
-7439.250532	4082.436167	1139.312500	-79.318123
-7439.250532	4082.436167	1138.178711	3.107544
-7439.250532	4082.436167	1137.045898	70.082108
-7439.250532	4082.436167	1135.912109	69.892494
-7439.250532	4082.436167	1134.777344	-94.465675
-7439.250532	4082.436167	1133.643555	71.326431
-7439.250532	4082.436167	1132.508789	10.732362
-7439.250532	4082.436167	1131.374023	134.850815
-7439.250532	4082.436167	1130.239258	373.368896
-7439.250532	4082.436167	1129.104492	331.691559
-7439.250532	4082.436167	1127.968750	246.023819
-7439.250532	4082.436167	1126.833008	214.500671
-7439.250532	4082.436167	1125.697266	374.984039
-7439.250532	4082.436167	1124.560547	399.051056
-7439.250532	4082.436167	1123.424805	229.789551
-7439.250532	4082.436167	1122.288086	367.496674
-7439.250532	4082.436167	1121.151367	274.260620
-7439.250532	4082.436167	1120.013672	119.571487
-7439.250532	4082.436167	1118.876953	216.654129
-7439.250532	4082.436167	1117.739258	144.377701
-7439.250532	4082.436167	1116.601563	165.511230
-7439.250532	4082.436167	1115.462891	106.591591
-7439.250532	4082.436167	1114.324219	187.467926
-7439.250532	4082.436167	1113.186523	185.738556
-7439.250532	4082.436167	1112.046875	223.676666
-7439.250532	4082.436167	1110.908203	116.301437
-7439.250532	4082.436167	1109.769531	25.154583
-7439.250532	4082.436167	1108.629883	54.416382
-7439.250532	4082.436167	1107.490234	97.172531
-7439.250532	4082.436167	1106.349609	83.800522
-7439.250532	4082.436167	1105.209961	175.162674
-7439.250532	4082.436167	1104.069336	90.272041
-7439.250532	4082.436167	1102.928711	131.460556
-7439.250532	4082.436167	1101.787109	71.505020
-7439.250532	4082.436167	1100.646484	192.187958
-7439.250532	4082.436167	1099.504883	114.385452
-7439.250532	4082.436167	1098.363281	243.793854
-7439.250532	4082.436167	1097.221680	288.450043
-7439.250532	4082.436167	1096.079102	216.276184
-7439.250532	4082.436167	1094.936523	193.733368
-7439.250532	4082.436167	1093.793945	135.222748
-7439.250532	4082.436167	1092.651367	278.505859
-7439.250532	4082.436167	1091.507813	181.766434
-7439.250532	4082.436167	1090.364258	220.848572
-7439.250532	4082.436167	1089.220703	223.366333
-7439.250532	4082.436167	1088.077148	186.602722
-7439.250532	4082.436167	1086.933594	200.538986
-7439.250532	4082.436167	1085.789063	92.392982
-7439.250532	4082.436167	1084.644531	159.373199
-7439.250532	4082.436167	1083.499023	234.000137
-7439.250532	4082.436167	1082.354492	243.184433
-7439.250532	4082.436167	1081.208984	49.885189
-7439.250532	4082.436167	1080.063477	130.844284
-7439.250532	4082.436167	1078.917969	103.064514
-7439.250532	4082.436167	1077.771484	188.404099
-7439.250532	4082.436167	1076.625977	179.319000
-7439.250532	4082.436167	1075.479492	125.886131
-7439.250532	4082.436167	1074.332031	242.342590
-7439.250532	4082.436167	1073.185547	237.105469
-7439.250532	4082.436167	1072.038086	220.666550
-7439.250532	4082.436167	1070.890625	199.125473
-7439.250532	4082.436167	1069.743164	151.309296
-7439.250532	4082.436167	1068.594727	169.864090
-7439.250532	4082.436167	1067.447266	36.594097
-7439.250532	4082.436167	1066.298828	190.193863
-7439.250532	4082.436167	1065.149414	228.003052
-7439.250532	4082.436167	1064.000977	216.651321
-7439.250532	4082.436167	1062.851563	244.537140
-7439.250532	4082.436167	1061.702148	194.547592
-7439.250532	4082.436167	1060.552734	165.763687
-7439.250532	4082.436167	1059.402344	293.786346
-7439.250532	4082.436167	1058.252930	191.855957
-7439.250532	4082.436167	1057.102539	177.274948
-7439.250532	4082.436167	1055.951172	82.070534
-7439.250532	4082.436167	1054.800781	194.856400
-7439.250532	4082.436167	1053.649414	125.048050
-7439.250532	4082.436167	1052.498047	207.557327
-7439.250532	4082.436167	1051.346680	65.382294
-7439.250532	4082.436167	1050.194336	199.599167
-7439.250532	4082.436167	1049.042969	186.479294
-7439.250532	4082.436167	1047.890625	90.542313
-7439.250532	4082.436167	1046.738281	290.281342
-7439.250532	4082.436167	1045.584961	242.877975
-7439.250532	4082.436167	1044.431641	206.016815
-7439.250532	4082.436167	1043.278320	157.445953
-7439.250532	4082.436167	1042.125000	170.973053
-7439.250532	4082.436167	1040.971680	337.709503
-7439.250532	4082.436167	1039.817383	193.420715
-7439.250532	4082.436167	1038.663086	267.771973
-7439.250532	4082.436167	1037.508789	221.356140
-7439.250532	4082.436167	1036.353516	264.928741
-7439.250532	4082.436167	1035.198242	286.126923
-7439.250532	4082.436167	1034.042969	160.799393
-7439.250532	4082.436167	1032.887695	244.833923
-7439.250532	4082.436167	1031.732422	215.884903
-7439.250532	4082.436167	1030.576172	101.592522
-7439.250532	4082.436167	1029.419922	212.487640
-7439.250532	4082.436167	1028.263672	412.740295
-7439.250532	4082.436167	1027.106445	310.933929
-7439.250532	4082.436167	1025.949219	272.877838
-7439.250532	4082.436167	1024.792969	377.489899
-7439.250532	4082.436167	1023.634766	117.213341
-7439.250532	4082.436167	1022.477539	135.686264
-7439.250532	4082.436167	1021.319336	-32.134750
-7439.250532	4082.436167	1020.161133	89.357651
-7439.250532	4082.436167	1019.002930	33.511295
-7439.250532	4082.436167	1017.843750	146.416214
-7439.250532	4082.436167	1016.684570	128.018753
-7439.250532	4082.436167	1015.525391	89.398209
-7439.250532	4082.436167	1014.366211	132.982483
-7439.250532	4082.436167	1013.207031	148.071548
-7439.250532	4082.436167	1012.046875	133.698685
-7439.250532	4082.436167	1010.886719	15.997921
-7439.250532	4082.436167	1009.726563	-13.219985
-7439.250532	4082.436167	1008.565430	84.679688
-7439.250532	4082.436167	1007.404297	-39.634716
-7439.250532	4082.436167	1006.243164	94.986443
-7439.250532	4082.436167	1005.082031	194.838303
-7439.250532	4082.436167	1003.920898	202.552917
-7439.250532	4082.436167	1002.758789	173.595917
-7439.250532	4082.436167	1001.596680	132.434677
-7439.250532	4082.436167	1000.433594	200.354111
-7439.250532	4082.436167	999.271484	168.331955
-7439.250532	4082.436167	998.108398	91.846947
-7439.250532	4082.436167	996.945313	113.942780
-7439.250532	4082.436167	995.782227	187.451736
-7439.250532	4082.436167	994.618164	122.820709
-7439.250532	4082.436167	993.454102	472.758545
-7439.250532	4082.436167	992.290039	749.109253
-7439.250532	4082.436167	991.125977	655.875000
-7439.250532	4082.436167	989.960938	634.141357
-7439.250532	4082.436167	988.796875	678.834778
-7439.250532	4082.436167	987.630859	624.077271
-7439.250532	4082.436167	986.465820	610.001343
-7439.250532	4082.436167	985.300781	454.096741
-7439.250532	4082.436167	984.134766	316.283722
-7439.250532	4082.436167	982.968750	163.527313
-7439.250532	4082.436167	981.801758	212.987961
-7439.250532	4082.436167	980.635742	236.592697
-7439.250532	4082.436167	979.468750	8.663090
-7439.250532	4082.436167	978.301758	127.907455
-7439.250532	4082.436167	977.133789	40.575996
-7439.250532	4082.436167	975.966797	77.635033
-7439.250532	4082.436167	974.798828	15.545581
-7439.250532	4082.436167	973.630859	1.395952
-7439.250532	4082.436167	972.461914	15.290744
-7439.250532	4082.436167	971.293945	124.108627
-7439.250532	4082.436167	970.125000	62.079926
-7439.250532	4082.436167	968.956055	-23.435429
-7439.250532	4082.436167	967.786133	44.056709
-7439.250532	4082.436167	966.617188	155.190109
-7439.250532	4082.436167	965.447266	83.789642
-7439.250532	4082.436167	964.276367	15.646567
-7439.250532	4082.436167	963.106445	111.908501
-7439.250532	4082.436167	961.935547	178.337646
-7439.250532	4082.436167	960.764648	-131.120895
-7439.250532	4082.436167	959.593750	122.008797
-7439.250532	4082.436167	958.422852	-88.058083
-7439.250532	4082.436167	957.250977	78.181198
-7439.250532	4082.436167	956.079102	84.120079
-7439.250532	4082.436167	954.907227	-87.004280
-7439.250532	4082.436167	953.734375	51.179443
-7439.250532	4082.436167	952.562500	22.245579
-7439.250532	4082.436167	951.389648	47.268909
-7439.250532	4082.436167	950.215820	-27.473417
-7439.250532	4082.436167	949.042969	-91.681847
-7439.250532	4082.436167	947.869141	-24.179174
-7439.250532	4082.436167	946.695313	72.060539
-7439.250532	4082.436167	945.521484	-184.532654
-7439.250532	4082.436167	944.346680	-192.602722
-7439.250532	4082.436167	943.172852	-19.138491
-7439.250532	4082.436167	941.998047	-37.731014
-7439.250532	4082.436167	940.822266	-38.539173
-7439.250532	4082.436167	939.647461	16.932722
-7439.250532	4082.436167	938.471680	-47.706806
-7439.250532	4082.436167	937.295898	-20.787119
-7439.250532	4082.436167	936.119141	-55.071949
-7439.250532	4082.436167	934.943359	132.257782
-7439.250532	4082.436167	933.766602	-52.175884
-7439.250532	4082.436167	932.589844	-95.512291
-7439.250532	4082.436167	931.413086	16.138098
-7439.250532	4082.436167	930.235352	81.989960
-7439.250532	4082.436167	929.057617	-65.492958
-7439.250532	4082.436167	927.879883	-24.366453
-7439.250532	4082.436167	926.702148	97.808311
-7439.250532	4082.436167	925.523438	-2.042608
-7439.250532	4082.436167	924.344727	88.295074
-7439.250532	4082.436167	923.166016	143.417404
-7439.250532	4082.436167	921.987305	-21.569277
-7439.250532	4082.436167	920.807617	-45.685783
-7439.250532	4082.436167	919.627930	-43.520008
-7439.250532	4082.436167	919.497070	-69.562592
-7439.250532	4082.436167	918.331055	62.886978
-7439.250532	4082.436167	917.165039	80.922188
-7439.250532	4082.436167	915.999023	-120.912682
-7439.250532	4082.436167	914.833008	-48.365833
-7439.250532	4082.436167	913.666016	62.815762
-7439.250532	4082.436167	912.499023	47.382645
-7439.250532	4082.436167	911.332031	112.779472
-7439.250532	4082.436167	910.165039	85.015854
-7439.250532	4082.436167	908.997070	80.086952
-7439.250532	4082.436167	907.830078	76.902809
-7439.250532	4082.436167	906.661133	207.160141
-7439.250532	4082.436167	905.493164	-8.496797
-7439.250532	4082.436167	904.325195	107.657104
-7439.250532	4082.436167	903.156250	-11.397691
-7439.250532	4082.436167	901.987305	-65.498955
-7439.250532	4082.436167	900.818359	-93.277245
-7439.250532	4082.436167	899.648438	-35.118355
-7439.250532	4082.436167	898.478516	-54.144695
-7439.250532	4082.436167	897.308594	-62.655289
-7439.250532	4082.436167	896.138672	-58.903751
-7439.250532	4082.436167	894.968750	42.968117
-7439.250532	4082.436167	893.797852	46.678459
-7439.250532	4082.436167	892.626953	-16.184172
-7439.250532	4082.436167	891.456055	153.889786
-7439.250532	4082.436167	890.284180	92.765892
-7439.250532	4082.436167	889.113281	0.146430
-7439.250532	4082.436167	887.941406	-10.182565
-7439.250532	4082.436167	886.768555	-15.264311
-7439.250532	4082.436167	885.596680	46.127426
-7439.250532	4082.436167	884.423828	-42.937199
-7439.250532	4082.436167	883.250977	35.909695
-7439.250532	4082.436167	882.078125	-47.885849
-7439.250532	4082.436167	880.905273	-105.433456
-7439.250532	4082.436167	879.731445	-122.765114
-7439.250532	4082.436167	878.557617	-28.265869
-7439.250532	4082.436167	877.383789	-35.136665
-7439.250532	4082.436167	876.209961	19.121250
-7439.250532	4082.436167	875.035156	-110.006081
-7439.250532	4082.436167	873.860352	-45.289452
-7439.250532	4082.436167	872.685547	42.087749
-7439.250532	4082.436167	871.510742	75.322990
-7439.250532	4082.436167	870.334961	40.491627
-7439.250532	4082.436167	869.159180	-165.289932
-7439.250532	4082.436167	867.983398	-100.651367
-7439.250532	4082.436167	866.807617	51.144783
-7439.250532	4082.436167	865.630859	-49.919422
-7439.250532	4082.436167	864.454102	-16.730984
-7439.250532	4082.436167	863.277344	-9.700389
-7439.250532	4082.436167	862.100586	-95.021339
-7439.250532	4082.436167	860.922852	-14.820202
-7439.250532	4082.436167	859.745117	-70.502556
-7439.250532	4082.436167	858.567383	-42.584869
-7439.250532	4082.436167	857.389648	-94.763794
-7439.250532	4082.436167	856.210938	-166.069061
-7439.250532	4082.436167	855.032227	21.941900
-7439.250532	4082.436167	853.853516	-110.259140
-7439.250532	4082.436167	852.674805	-59.761921
-7439.250532	4082.436167	851.495117	-244.069839
-7439.250532	4082.436167	850.315430	-130.974243
-7439.250532	4082.436167	849.135742	-172.646927
-7439.250532	4082.436167	847.956055	-40.498940
-7439.250532	4082.436167	846.775391	-57.849159
-7439.250532	4082.436167	845.595703	-122.103600
-7439.250532	4082.436167	844.415039	-24.793154
-7439.250532	4082.436167	843.233398	-9.145310
-7439.250532	4082.436167	842.052734	60.316711
-7439.250532	4082.436167	840.871094	65.520973
-7439.250532	4082.436167	839.689453	-24.735521
-7439.250532	4082.436167	838.506836	-3.902084
-7439.250532	4082.436167	837.325195	-42.065907
-7439.250532	4082.436167	836.142578	25.588730
-7439.250532	4082.436167	834.959961	34.253326
-7439.250532	4082.436167	833.777344	-42.043320
-7439.250532	4082.436167	832.593750	96.634689
-7439.250532	4082.436167	831.410156	112.205902
-7439.250532	4082.436167	830.226563	152.026230
-7439.250532	4082.436167	829.042969	110.407150
-7439.250532	4082.436167	827.858398	-62.826298
-7439.250532	4082.436167	826.673828	-35.121819
-7439.250532	4082.436167	825.489258	207.247086
-7439.250532	4082.436167	824.304688	331.810120
-7439.250532	4082.436167	823.120117	182.891418
-7439.250532	4082.436167	821.934570	314.324768
-7439.250532	4082.436167	820.749023	414.564270
-7439.250532	4082.436167	819.562500	582.211243
-7439.250532	4082.436167	818.376953	635.661377
-7439.250532	4082.436167	817.190430	777.255127
-7439.250532	4082.436167	816.003906	742.488037
-7439.250532	4082.436167	814.817383	880.538696
-7439.250532	4082.436167	813.629883	869.946411
-7439.250532	4082.436167	812.442383	994.088562
-7439.250532	4082.436167	811.254883	1119.901489
-7439.250532	4082.436167	810.067383	1256.018921
-7439.250532	4082.436167	808.878906	1219.448608
-7439.250532	4082.436167	807.690430	925.726440
-7439.250532	4082.436167	806.501953	871.975098
-7439.250532	4082.436167	805.313477	742.331177
-7439.250532	4082.436167	804.124023	626.535889
-7439.250532	4082.436167	802.934570	453.874939
-7439.250532	4082.436167	801.745117	303.693726
-7439.250532	4082.436167	800.555664	306.985260
-7439.250532	4082.436167	799.365234	286.142090
-7439.250532	4082.436167	798.175781	156.747406
-7439.250532	4082.436167	796.985352	-41.507549
-7439.250532	4082.436167	795.793945	190.902328
-7439.250532	4082.436167	794.603516	83.974251
-7439.250532	4082.436167	793.412109	85.547852
-7439.250532	4082.436167	792.220703	192.110840
-7439.250532	4082.436167	791.028320	47.368256
-7439.250532	4082.436167	789.836914	45.482857
-7439.250532	4082.436167	788.644531	24.668701
-7439.250532	4082.436167	787.452148	67.489182
-7439.250532	4082.436167	786.258789	-20.398090
-7439.250532	4082.436167	785.066406	29.271240
-7439.250532	4082.436167	783.873047	-87.810837
-7439.250532	4082.436167	782.679688	-161.893921
-7439.250532	4082.436167	781.485352	-46.967426
-7439.250532	4082.436167	780.291992	-28.293337
-7439.250532	4082.436167	779.097656	7.536550
-7439.250532	4082.436167	777.903320	-49.378719
-7439.250532	4082.436167	776.708008	-216.146805
-7439.250532	4082.436167	775.512695	-97.953323
-7439.250532	4082.436167	774.318359	-120.530243
-7439.250532	4082.436167	773.122070	-95.072899
-7439.250532	4082.436167	771.926758	-194.852112
-7439.250532	4082.436167	770.730469	0.354102
-7439.250532	4082.436167	769.534180	-113.147186
-7439.250532	4082.436167	768.337891	-142.623505
-7439.250532	4082.436167	767.141602	67.829018
-7439.250532	4082.436167	765.944336	-9.679669
-7439.250532	4082.436167	764.747070	34.456844
-7439.250532	4082.436167	763.549805	-96.140320
-7439.250532	4082.436167	762.351563	21.594307
-7439.250532	4082.436167	761.154297	105.020584
-7439.250532	4082.436167	759.956055	128.486664
-7439.250532	4082.436167	758.757813	86.894402
-7439.250532	4082.436167	757.558594	-9.449130
-7439.250532	4082.436167	756.359375	-249.461868
-7439.250532	4082.436167	755.160156	-15.660909
-7439.250532	4082.436167	753.960938	7.707147
-7439.250532	4082.436167	752.761719	51.557812
-7439.250532	4082.436167	751.561523	-82.383499
-7439.250532	4082.436167	750.361328	104.963867
-7439.250532	4082.436167	749.160156	-76.813881
-7439.250532	4082.436167	747.959961	-17.699837
-7439.250532	4082.436167	746.758789	44.782143
-7439.250532	4082.436167	745.557617	6.477895
-7439.250532	4082.436167	744.356445	46.687176
-7439.250532	4082.436167	743.154297	-99.172386
-7439.250532	4082.436167	741.952148	7.537090
-7439.250532	4082.436167	740.750000	-76.892464
-7439.250532	4082.436167	739.547852	60.413883
-7439.250532	4082.436167	738.344727	-51.330437
-7439.250532	4082.436167	737.142578	133.593002
-7439.250532	4082.436167	735.939453	-20.790770
-7439.250532	4082.436167	734.735352	75.373573
-7439.250532	4082.436167	733.532227	99.907120
-7439.250532	4082.436167	732.328125	86.923141
-7439.250532	4082.436167	731.124023	232.301880
-7439.250532	4082.436167	729.918945	144.311249
-7439.250532	4082.436167	728.714844	163.574799
-7439.250532	4082.436167	727.509766	172.584961
-7439.250532	4082.436167	726.303711	171.347412
-7439.250532	4082.436167	725.098633	261.946808
-7439.250532	4082.436167	723.892578	190.881271
-7439.250532	4082.436167	722.686523	138.516068
-7439.250532	4082.436167	721.480469	194.953171
-7439.250532	4082.436167	720.274414	263.228607
-7439.250532	4082.436167	719.067383	96.900055
-7439.250532	4082.436167	717.860352	158.294373
-7439.250532	4082.436167	716.653320	163.562790
-7439.250532	4082.436167	715.445313	367.510986
-7439.250532	4082.436167	714.238281	459.258270
-7439.250532	4082.436167	713.030273	696.933105
-7439.250532	4082.436167	711.821289	975.205750
-7439.250532	4082.436167	710.613281	1014.033569
-7439.250532	4082.436167	709.404297	1329.365112
-7439.250532	4082.436167	708.195313	1398.550537
-7439.250532	4082.436167	706.986328	1184.432861
-7439.250532	4082.436167	705.776367	1009.360107
-7439.250532	4082.436167	704.566406	871.610962
-7439.250532	4082.436167	703.356445	445.737701
-7439.250532	4082.436167	702.146484	357.215302
-7439.250532	4082.436167	700.935547	95.872955
-7439.250532	4082.436167	699.724609	29.386127
-7439.250532	4082.436167	698.513672	56.021851
-7439.250532	4082.436167	697.302734	189.264923
-7439.250532	4082.436167	696.090820	198.829147
-7439.250532	4082.436167	694.878906	8.632374
-7439.250532	4082.436167	693.666992	77.352760
-7439.250532	4082.436167	692.455078	152.760284
-7439.250532	4082.436167	691.242188	36.959240
-7439.250532	4082.436167	690.029297	59.817341
-7439.250532	4082.436167	688.816406	300.707611
-7439.250532	4082.436167	687.602539	343.677094
-7439.250532	4082.436167	686.389648	273.349854
-7439.250532	4082.436167	685.175781	294.234039
-7439.250532	4082.436167	683.960938	418.097107
-7439.250532	4082.436167	682.747070	247.988647
-7439.250532	4082.436167	681.532227	258.566528
-7439.250532	4082.436167	680.317383	333.233490
-7439.250532	4082.436167	679.102539	534.398315
-7439.250532	4082.436167	677.886719	487.363037
-7439.250532	4082.436167	676.670898	440.290405
-7439.250532	4082.436167	675.455078	332.455383
-7439.250532	4082.436167	674.239258	347.713989
-7439.250532	4082.436167	673.022461	342.671875
-7439.250532	4082.436167	671.805664	305.544739
-7439.250532	4082.436167	670.588867	364.436646
-7439.250532	4082.436167	669.372070	429.981995
-7439.250532	4082.436167	668.154297	399.414246
-7439.250532	4082.436167	666.936523	431.115265
-7439.250532	4082.436167	665.718750	533.464661
-7439.250532	4082.436167	664.500977	736.720764
-7439.250532	4082.436167	663.282227	643.584778
-7439.250532	4082.436167	662.063477	653.078369
-7439.250532	4082.436167	660.844727	590.157410
-7439.250532	4082.436167	659.625000	791.291321
-7439.250532	4082.436167	658.405273	845.961182
-7439.250532	4082.436167	657.185547	646.649963
-7439.250532	4082.436167	655.965820	684.386841
-7439.250532	4082.436167	654.745117	564.054199
-7439.250532	4082.436167	653.525391	463.873688
-7439.250532	4082.436167	652.303711	445.985199
-7439.250532	4082.436167	651.083008	255.037476
-7439.250532	4082.436167	649.861328	210.199280
-7439.250532	4082.436167	648.640625	272.767395
-7439.250532	4082.436167	647.417969	249.630707
-7439.250532	4082.436167	646.196289	179.448380
-7439.250532	4082.436167	644.973633	214.931778
-7439.250532	4082.436167	643.750977	241.945969
-7439.250532	4082.436167	642.528320	111.227669
-7439.250532	4082.436167	641.305664	45.893005
-7439.250532	4082.436167	640.082031	238.688263
-7439.250532	4082.436167	638.858398	163.159424
-7439.250532	4082.436167	637.634766	188.138504
-7439.250532	4082.436167	636.410156	130.942947
-7439.250532	4082.436167	635.185547	128.979309
-7439.250532	4082.436167	633.960938	14.745169
-7439.250532	4082.436167	632.736328	250.424164
-7439.250532	4082.436167	631.510742	114.312141
-7439.250532	4082.436167	630.285156	153.918945
-7439.250532	4082.436167	629.059570	220.212952
-7439.250532	4082.436167	627.833984	130.830978
-7439.250532	4082.436167	626.607422	384.287476
-7439.250532	4082.436167	625.380859	376.707367
-7439.250532	4082.436167	624.154297	604.791504
-7439.250532	4082.436167	622.927734	740.779297
-7439.250532	4082.436167	621.700195	903.377502
-7439.250532	4082.436167	620.472656	908.786926
-7439.250532	4082.436167	619.245117	902.433655
-7439.250532	4082.436167	618.016602	461.796783
-7439.250532	4082.436167	616.788086	385.276550
-7439.250532	4082.436167	615.559570	270.327393
-7439.250532	4082.436167	614.331055	192.078583
-7439.250532	4082.436167	613.101563	212.244400
-7439.250532	4082.436167	611.872070	48.824074
-7439.250532	4082.436167	610.642578	165.621719
-7439.250532	4082.436167	609.413086	255.623093
-7439.250532	4082.436167	608.182617	115.440849
-7439.250532	4082.436167	606.952148	136.940689
-7439.250532	4082.436167	605.721680	171.701248
-7439.250532	4082.436167	604.491211	81.420753
-7439.250532	4082.436167	603.259766	36.089684
-7439.250532	4082.436167	602.028320	35.682438
-7439.250532	4082.436167	600.796875	-31.389288
-7439.250532	4082.436167	599.564453	18.033848
-7439.250532	4082.436167	598.332031	125.630058
-7439.250532	4082.436167	597.099609	-23.142017
-7439.250532	4082.436167	595.867188	230.702667
-7439.250532	4082.436167	594.633789	56.900013
-7439.250532	4082.436167	593.400391	120.918541
-7439.250532	4082.436167	592.166992	129.986526
-7439.250532	4082.436167	590.933594	173.902557
-7439.250532	4082.436167	589.699219	-54.815311
-7439.250532	4082.436167	588.464844	17.251900
-7439.250532	4082.436167	587.230469	207.179718
-7439.250532	4082.436167	585.995117	91.371864
-7439.250532	4082.436167	584.760742	120.029221
-7439.250532	4082.436167	583.525391	211.702576
-7439.250532	4082.436167	582.289063	133.983536
-7439.250532	4082.436167	581.053711	-23.401350
-7439.250532	4082.436167	579.817383	79.703033
-7439.250532	4082.436167	578.581055	146.222504
-7439.250532	4082.436167	577.343750	197.736954
-7439.250532	4082.436167	576.107422	166.286804
-7439.250532	4082.436167	574.870117	68.492752
-7439.250532	4082.436167	573.631836	-59.140324
-7439.250532	4082.436167	572.394531	55.158695
-7439.250532	4082.436167	571.156250	30.206699
-7439.250532	4082.436167	569.917969	18.473822
-7439.250532	4082.436167	568.679688	172.296143
-7439.250532	4082.436167	567.440430	95.888229
-7439.250532	4082.436167	566.202148	85.687614
-7439.250532	4082.436167	564.961914	37.382576
-7439.250532	4082.436167	563.722656	149.552811
-7439.250532	4082.436167	562.482422	39.981754
-7439.250532	4082.436167	561.243164	209.918716
-7439.250532	4082.436167	560.001953	-15.428718
-7439.250532	4082.436167	558.761719	-27.458031
-7439.250532	4082.436167	557.520508	-34.560730
-7439.250532	4082.436167	556.279297	-165.614853
-7439.250532	4082.436167	555.038086	46.978554
-7439.250532	4082.436167	553.795898	-115.477150
-7439.250532	4082.436167	552.554688	-5.416821
-7439.250532	4082.436167	551.311523	2.202744
-7439.250532	4082.436167	550.069336	-59.521309
-7439.250532	4082.436167	548.826172	19.025209
-7439.250532	4082.436167	547.583984	-3.118776
-7439.250532	4082.436167	546.339844	30.801737
-7439.250532	4082.436167	545.096680	-98.571968
-7439.250532	4082.436167	543.852539	32.603725
-7439.250532	4082.436167	542.608398	-7.731556
-7439.250532	4082.436167	541.364258	39.288811
-7439.250532	4082.436167	540.119141	25.304096
-7439.250532	4082.436167	538.875000	24.501831
-7439.250532	4082.436167	537.628906	43.444511
-7439.250532	4082.436167	536.383789	100.252113
-7439.250532	4082.436167	535.137695	22.024048
-7439.250532	4082.436167	533.892578	-89.090210
-7439.250532	4082.436167	532.645508	-20.794800
-7439.250532	4082.436167	531.399414	149.485352
-7439.250532	4082.436167	530.152344	-55.361294
-7439.250532	4082.436167	528.905273	-80.857964
-7439.250532	4082.436167	527.658203	-42.215202
-7439.250532	4082.436167	526.410156	-79.209778
-7439.250532	4082.436167	525.163086	-65.227455
-7439.250532	4082.436167	523.914063	-0.317061
-7439.250532	4082.436167	522.666016	-61.918331
-7439.250532	4082.436167	521.416992	-98.851776
-7439.250532	4082.436167	520.167969	-63.505009
-7439.250532	4082.436167	518.918945	-115.175575
-7439.250532	4082.436167	517.669922	-170.093689
-7439.250532	4082.436167	516.419922	-69.077133
-7439.250532	4082.436167	515.169922	-74.734375
-7439.250532	4082.436167	513.919922	-52.486095
-7439.250532	4082.436167	512.668945	-69.595444
-7439.250532	4082.436167	511.417969	-126.029388
-7439.250532	4082.436167	510.166992	-108.650108
-7439.250532	4082.436167	508.916016	-155.175293
-7439.250532	4082.436167	507.664063	31.017590
-7439.250532	4082.436167	506.412109	-43.327675
-7439.250532	4082.436167	505.160156	-52.100765
-7439.250532	4082.436167	503.907227	-67.399895
-7439.250532	4082.436167	502.655273	-257.839417
-7439.250532	4082.436167	501.402344	-94.618660
-7439.250532	4082.436167	500.148438	-77.092270
-7439.250532	4082.436167	498.895508	-151.162964
-7439.250532	4082.436167	497.641602	-50.148243
-7439.250532	4082.436167	496.387695	-24.377178
-7439.250532	4082.436167	495.132813	11.218848
-7439.250532	4082.436167	493.878906	-28.361959
-7439.250532	4082.436167	492.624023	-177.401993
-7439.250532	4082.436167	491.368164	-148.242584
-7439.250532	4082.436167	490.113281	50.844570
-7439.250532	4082.436167	488.857422	-68.625107
-7439.250532	4082.436167	487.601563	34.074348
-7439.250532	4082.436167	486.344727	-145.685043
-7439.250532	4082.436167	485.088867	-80.489937
-7439.250532	4082.436167	483.832031	-116.473450
-7439.250532	4082.436167	482.575195	-61.040932
-7439.250532	4082.436167	481.317383	-155.677017
-7439.250532	4082.436167	480.059570	-10.502147
-7439.250532	4082.436167	478.801758	84.094543
-7439.250532	4082.436167	477.543945	-64.210754
-7439.250532	4082.436167	476.285156	-72.263329
-7439.250532	4082.436167	475.027344	-94.943069
-7439.250532	4082.436167	473.767578	-44.283665
-7439.250532	4082.436167	472.508789	-48.990627
-7439.250532	4082.436167	471.249023	-120.438782
-7439.250532	4082.436167	469.989258	-20.884415
-7439.250532	4082.436167	468.729492	116.087097
-7439.250532	4082.436167	467.469727	7.294554
-7439.250532	4082.436167	466.208984	14.081309
-7439.250532	4082.436167	464.948242	22.510752
-7439.250532	4082.436167	463.686523	-92.648239
-7439.250532	4082.436167	462.425781	50.786201
-7439.250532	4082.436167	461.164063	5.599576
-7439.250532	4082.436167	459.901367	77.455528
-7439.250532	4082.436167	458.639648	108.671097
-7439.250532	4082.436167	457.376953	-100.556519
-7439.250532	4082.436167	456.114258	136.958847
-7439.250532	4082.436167	454.851563	135.667236
-7439.250532	4082.436167	453.587891	126.250298
-7439.250532	4082.436167	452.324219	95.730553
-7439.250532	4082.436167	451.060547	36.001797
-7439.250532	4082.436167	449.796875	62.273045
-7439.250532	4082.436167	448.532227	65.800323
-7439.250532	4082.436167	447.267578	-55.570438
-7439.250532	4082.436167	446.002930	108.446297
-7439.250532	4082.436167	444.737305	64.862663
-7439.250532	4082.436167	443.471680	84.467316
-7439.250532	4082.436167	442.206055	48.929867
-7439.250532	4082.436167	440.940430	94.358139
-7439.250532	4082.436167	439.673828	-49.788574
-7439.250532	4082.436167	438.407227	82.963043
-7439.250532	4082.436167	437.140625	-48.293606
-7439.250532	4082.436167	435.873047	-8.001559
-7439.250532	4082.436167	434.605469	-6.645205
-7439.250532	4082.436167	433.337891	88.460785
-7439.250532	4082.436167	432.070313	16.826660
-7439.250532	4082.436167	430.801758	-80.757668
-7439.250532	4082.436167	429.533203	33.393364
-7439.250532	4082.436167	428.264648	5.126967
-7439.250532	4082.436167	426.996094	30.078125
-7439.250532	4082.436167	425.726563	-1.674850
-7439.250532	4082.436167	424.457031	-91.713974
-7439.250532	4082.436167	423.186523	-152.804626
-7439.250532	4082.436167	421.916992	239.709030
-7439.250532	4082.436167	420.646484	165.317657
-7439.250532	4082.436167	419.375977	118.210716
-7439.250532	4082.436167	418.104492	46.715515
-7439.250532	4082.436167	416.833008	-81.425278
-7439.250532	4082.436167	415.561523	122.541138
-7439.250532	4082.436167	414.290039	100.417946
-7439.250532	4082.436167	413.017578	50.642467
-7439.250532	4082.436167	411.746094	65.113029
-7439.250532	4082.436167	410.472656	16.437868
-7439.250532	4082.436167	409.200195	31.951971
-7439.250532	4082.436167	407.926758	71.312263
-7439.250532	4082.436167	406.653320	57.191013
-7439.250532	4082.436167	405.379883	10.538697
-7439.250532	4082.436167	404.105469	118.092491
-7439.250532	4082.436167	402.831055	-8.141118
-7439.250532	4082.436167	401.556641	55.174530
-7439.250532	4082.436167	400.282227	224.240845
-7439.250532	4082.436167	399.006836	177.276108
-7439.250532	4082.436167	397.731445	120.244827
-7439.250532	4082.436167	396.456055	162.461014
-7439.250532	4082.436167	395.179688	-14.432973
-7439.250532	4082.436167	393.903320	132.871338
-7439.250532	4082.436167	392.626953	178.372772
-7439.250532	4082.436167	391.350586	75.531471
-7439.250532	4082.436167	390.073242	62.095169
-7439.250532	4082.436167	388.795898	6.331386
-7439.250532	4082.436167	387.518555	185.959137
-7439.250532	4082.436167	386.240234	61.528481
-7439.250532	4082.436167	384.961914	88.928352
-7439.250532	4082.436167	383.683594	107.610146
-7439.250532	4082.436167	382.405273	-33.212738
-7439.250532	4082.436167	381.125977	67.407234
-7439.250532	4082.436167	379.846680	130.342575
-7439.250532	4082.436167	378.567383	179.632660
-7439.250532	4082.436167	377.287109	30.953400
-7439.250532	4082.436167	376.006836	-20.786133
-7439.250532	4082.436167	374.726563	46.746056
-7439.250532	4082.436167	373.446289	74.896805
-7439.250532	4082.436167	372.165039	5.998243
-7439.250532	4082.436167	370.883789	94.620941
-7439.250532	4082.436167	369.602539	204.590698
-7439.250532	4082.436167	368.320313	230.234772
-7439.250532	4082.436167	367.039063	66.036934
-7439.250532	4082.436167	365.755859	123.044426
-7439.250532	4082.436167	364.473633	60.560547
-7439.250532	4082.436167	363.190430	84.800476
-7439.250532	4082.436167	361.907227	149.340851
-7439.250532	4082.436167	360.624023	16.019674
-7439.250532	4082.436167	359.340820	-48.275192
-7439.250532	4082.436167	358.056641	-93.176735
-7439.250532	4082.436167	356.772461	82.497940
-7439.250532	4082.436167	355.487305	231.059814
-7439.250532	4082.436167	354.202148	-81.662766
-7439.250532	4082.436167	352.916992	118.070236
-7439.250532	4082.436167	351.631836	12.964608
-7439.250532	4082.436167	350.346680	198.171356
-7439.250532	4082.436167	349.060547	92.894249
-7439.250532	4082.436167	347.774414	54.472603
-7439.250532	4082.436167	346.487305	-27.228861
-7439.250532	4082.436167	345.200195	-53.381443
-7439.250532	4082.436167	343.913086	-54.351788
-7439.250532	4082.436167	342.625977	192.819412
-7439.250532	4082.436167	341.338867	-43.157803
-7439.250532	4082.436167	340.050781	48.455357
-7439.250532	4082.436167	338.762695	83.745277
-7439.250532	4082.436167	337.473633	14.883227
-7439.250532	4082.436167	336.184570	-173.990295
-7439.250532	4082.436167	334.895508	-279.211975
-7439.250532	4082.436167	333.606445	-202.283005
-7439.250532	4082.436167	332.317383	-126.274216
-7439.250532	4082.436167	331.027344	-97.426880
-7439.250532	4082.436167	329.736328	-126.912445
-7439.250532	4082.436167	328.446289	-100.212418
-7439.250532	4082.436167	327.155273	-217.771088
-7439.250532	4082.436167	325.864258	-153.847473
-7439.250532	4082.436167	324.573242	-70.636803
-7439.250532	4082.436167	323.281250	-106.451118
-7439.250532	4082.436167	321.989258	-67.542137
-7439.250532	4082.436167	320.697266	-122.284775
-7439.250532	4082.436167	319.405273	-94.560440
-7439.250532	4082.436167	318.112305	-68.676025
-7439.250532	4082.436167	316.819336	-182.635696
-7439.250532	4082.436167	315.526367	-82.801697
-7439.250532	4082.436167	314.232422	-157.934616
-7439.250532	4082.436167	312.938477	-30.668308
-7439.250532	4082.436167	311.644531	-102.177177
-7439.250532	4082.436167	310.349609	83.784546
-7439.250532	4082.436167	309.054688	78.752434
-7439.250532	4082.436167	307.759766	42.707451
-7439.250532	4082.436167	306.464844	121.237061
-7439.250532	4082.436167	305.168945	320.380219
-7439.250532	4082.436167	303.873047	325.104095
-7439.250532	4082.436167	302.577148	469.300598
-7439.250532	4082.436167	301.281250	811.299927
-7439.250532	4082.436167	299.984375	903.126709
