#X		#Y		#Wave		#Intensity
-6595.027447	4571.021333	1999.946289	46.530663
-6595.027447	4571.021333	1998.981445	86.350533
-6595.027447	4571.021333	1998.017578	53.351173
-6595.027447	4571.021333	1997.052734	-49.030640
-6595.027447	4571.021333	1996.088867	-20.067686
-6595.027447	4571.021333	1995.124023	-20.850079
-6595.027447	4571.021333	1994.159180	-86.035217
-6595.027447	4571.021333	1993.193359	-84.345703
-6595.027447	4571.021333	1992.228516	60.932087
-6595.027447	4571.021333	1991.262695	65.052704
-6595.027447	4571.021333	1990.296875	24.614639
-6595.027447	4571.021333	1989.331055	28.722843
-6595.027447	4571.021333	1988.365234	-1.814619
-6595.027447	4571.021333	1987.398438	-0.194016
-6595.027447	4571.021333	1986.432617	3.890658
-6595.027447	4571.021333	1985.465820	10.437512
-6595.027447	4571.021333	1984.499023	-111.578438
-6595.027447	4571.021333	1983.532227	149.553223
-6595.027447	4571.021333	1982.565430	10.240666
-6595.027447	4571.021333	1981.597656	6.862772
-6595.027447	4571.021333	1980.629883	-40.987736
-6595.027447	4571.021333	1979.662109	-7.325047
-6595.027447	4571.021333	1978.694336	53.479229
-6595.027447	4571.021333	1977.726563	-1.787338
-6595.027447	4571.021333	1976.758789	21.948465
-6595.027447	4571.021333	1975.790039	-6.162564
-6595.027447	4571.021333	1974.821289	-31.804008
-6595.027447	4571.021333	1973.852539	46.172539
-6595.027447	4571.021333	1972.883789	151.244110
-6595.027447	4571.021333	1971.915039	81.168480
-6595.027447	4571.021333	1970.945313	53.026592
-6595.027447	4571.021333	1969.975586	-172.335800
-6595.027447	4571.021333	1969.005859	13.999722
-6595.027447	4571.021333	1968.036133	170.684525
-6595.027447	4571.021333	1967.066406	43.953419
-6595.027447	4571.021333	1966.096680	-16.226801
-6595.027447	4571.021333	1965.125977	17.198366
-6595.027447	4571.021333	1964.155273	-52.824192
-6595.027447	4571.021333	1963.184570	12.583430
-6595.027447	4571.021333	1962.213867	1.647283
-6595.027447	4571.021333	1961.242188	-9.294472
-6595.027447	4571.021333	1960.271484	-3.016873
-6595.027447	4571.021333	1959.299805	-55.797195
-6595.027447	4571.021333	1958.328125	11.961412
-6595.027447	4571.021333	1957.356445	-87.548698
-6595.027447	4571.021333	1956.384766	90.819916
-6595.027447	4571.021333	1955.412109	-8.687899
-6595.027447	4571.021333	1954.439453	-110.626144
-6595.027447	4571.021333	1953.467773	-72.458931
-6595.027447	4571.021333	1952.495117	-7.289339
-6595.027447	4571.021333	1951.521484	119.260498
-6595.027447	4571.021333	1950.548828	44.351768
-6595.027447	4571.021333	1949.575195	77.509743
-6595.027447	4571.021333	1948.601563	-34.211609
-6595.027447	4571.021333	1947.627930	-32.983208
-6595.027447	4571.021333	1946.654297	51.680763
-6595.027447	4571.021333	1945.680664	111.764160
-6595.027447	4571.021333	1944.706055	120.294441
-6595.027447	4571.021333	1943.732422	1.259586
-6595.027447	4571.021333	1942.757813	100.527496
-6595.027447	4571.021333	1941.783203	8.491570
-6595.027447	4571.021333	1940.807617	-71.262672
-6595.027447	4571.021333	1939.833008	37.736706
-6595.027447	4571.021333	1938.857422	56.011345
-6595.027447	4571.021333	1937.881836	-89.893463
-6595.027447	4571.021333	1936.906250	-61.823940
-6595.027447	4571.021333	1935.930664	-48.470539
-6595.027447	4571.021333	1934.955078	4.047568
-6595.027447	4571.021333	1933.978516	85.915932
-6595.027447	4571.021333	1933.001953	-45.223927
-6595.027447	4571.021333	1932.025391	-88.217735
-6595.027447	4571.021333	1931.048828	42.529701
-6595.027447	4571.021333	1930.072266	-56.756069
-6595.027447	4571.021333	1929.094727	81.253029
-6595.027447	4571.021333	1928.118164	45.561890
-6595.027447	4571.021333	1927.140625	83.227547
-6595.027447	4571.021333	1926.163086	18.189951
-6595.027447	4571.021333	1925.184570	33.826435
-6595.027447	4571.021333	1924.207031	-150.945419
-6595.027447	4571.021333	1923.228516	165.225784
-6595.027447	4571.021333	1922.250000	51.319553
-6595.027447	4571.021333	1921.271484	37.584900
-6595.027447	4571.021333	1920.292969	-51.857117
-6595.027447	4571.021333	1919.314453	-43.616386
-6595.027447	4571.021333	1918.334961	28.077415
-6595.027447	4571.021333	1917.355469	38.718040
-6595.027447	4571.021333	1916.375977	-6.779994
-6595.027447	4571.021333	1915.396484	-44.952850
-6595.027447	4571.021333	1914.416992	14.446510
-6595.027447	4571.021333	1913.436523	134.781143
-6595.027447	4571.021333	1912.457031	-66.799194
-6595.027447	4571.021333	1911.476563	202.193848
-6595.027447	4571.021333	1910.496094	44.526039
-6595.027447	4571.021333	1909.515625	120.854095
-6595.027447	4571.021333	1908.534180	29.022467
-6595.027447	4571.021333	1907.552734	107.737396
-6595.027447	4571.021333	1906.572266	-35.227921
-6595.027447	4571.021333	1905.590820	106.760223
-6595.027447	4571.021333	1904.608398	-55.653709
-6595.027447	4571.021333	1903.626953	61.919018
-6595.027447	4571.021333	1902.644531	169.700424
-6595.027447	4571.021333	1901.663086	170.363953
-6595.027447	4571.021333	1900.680664	158.850327
-6595.027447	4571.021333	1899.698242	54.897144
-6595.027447	4571.021333	1898.714844	2.041597
-6595.027447	4571.021333	1897.732422	-38.648243
-6595.027447	4571.021333	1896.749023	-81.766899
-6595.027447	4571.021333	1895.765625	-34.949295
-6595.027447	4571.021333	1894.782227	14.268891
-6595.027447	4571.021333	1893.798828	90.183525
-6595.027447	4571.021333	1892.814453	25.160353
-6595.027447	4571.021333	1891.831055	33.013672
-6595.027447	4571.021333	1890.846680	69.991104
-6595.027447	4571.021333	1889.862305	-70.292198
-6595.027447	4571.021333	1888.877930	-47.898777
-6595.027447	4571.021333	1887.892578	-27.954151
-6595.027447	4571.021333	1886.908203	57.487442
-6595.027447	4571.021333	1885.922852	-43.922684
-6595.027447	4571.021333	1884.937500	22.059095
-6595.027447	4571.021333	1883.952148	54.051399
-6595.027447	4571.021333	1882.965820	25.400810
-6595.027447	4571.021333	1881.980469	45.234364
-6595.027447	4571.021333	1880.994141	31.113417
-6595.027447	4571.021333	1880.007813	-31.481539
-6595.027447	4571.021333	1879.021484	22.232185
-6595.027447	4571.021333	1878.035156	8.085120
-6595.027447	4571.021333	1877.047852	-76.307663
-6595.027447	4571.021333	1876.061523	28.197121
-6595.027447	4571.021333	1875.074219	74.543503
-6595.027447	4571.021333	1874.086914	72.447403
-6595.027447	4571.021333	1873.098633	2.573642
-6595.027447	4571.021333	1872.111328	138.388855
-6595.027447	4571.021333	1871.123047	-139.552673
-6595.027447	4571.021333	1870.135742	-119.890236
-6595.027447	4571.021333	1869.147461	1.320552
-6595.027447	4571.021333	1868.158203	-87.884743
-6595.027447	4571.021333	1867.169922	59.839542
-6595.027447	4571.021333	1866.180664	-14.867958
-6595.027447	4571.021333	1865.192383	-91.975990
-6595.027447	4571.021333	1864.203125	31.464083
-6595.027447	4571.021333	1863.213867	63.051140
-6595.027447	4571.021333	1862.223633	-43.053062
-6595.027447	4571.021333	1861.234375	-18.735128
-6595.027447	4571.021333	1860.244141	-33.069469
-6595.027447	4571.021333	1859.253906	56.381702
-6595.027447	4571.021333	1858.263672	22.704306
-6595.027447	4571.021333	1857.273438	10.742547
-6595.027447	4571.021333	1856.282227	-107.377525
-6595.027447	4571.021333	1855.291992	32.617290
-6595.027447	4571.021333	1854.300781	71.259872
-6595.027447	4571.021333	1853.309570	148.451462
-6595.027447	4571.021333	1852.317383	-25.106762
-6595.027447	4571.021333	1851.326172	71.327286
-6595.027447	4571.021333	1850.333984	39.994854
-6595.027447	4571.021333	1849.342773	35.163456
-6595.027447	4571.021333	1848.350586	27.909258
-6595.027447	4571.021333	1847.357422	145.877701
-6595.027447	4571.021333	1846.365234	97.643524
-6595.027447	4571.021333	1845.372070	114.412682
-6595.027447	4571.021333	1844.379883	42.103703
-6595.027447	4571.021333	1843.386719	162.331207
-6595.027447	4571.021333	1842.393555	104.447258
-6595.027447	4571.021333	1841.399414	-15.977448
-6595.027447	4571.021333	1840.406250	17.563116
-6595.027447	4571.021333	1839.412109	77.527214
-6595.027447	4571.021333	1838.417969	-146.252060
-6595.027447	4571.021333	1837.423828	137.249191
-6595.027447	4571.021333	1836.429688	127.415733
-6595.027447	4571.021333	1835.434570	2.229298
-6595.027447	4571.021333	1834.440430	136.545197
-6595.027447	4571.021333	1833.445313	81.034431
-6595.027447	4571.021333	1832.450195	68.758202
-6595.027447	4571.021333	1831.454102	162.120071
-6595.027447	4571.021333	1830.458984	-63.855583
-6595.027447	4571.021333	1829.462891	70.270676
-6595.027447	4571.021333	1828.466797	33.948296
-6595.027447	4571.021333	1827.470703	143.983414
-6595.027447	4571.021333	1826.474609	57.255917
-6595.027447	4571.021333	1825.478516	83.271156
-6595.027447	4571.021333	1824.481445	87.679192
-6595.027447	4571.021333	1823.484375	68.095558
-6595.027447	4571.021333	1822.487305	41.313698
-6595.027447	4571.021333	1821.490234	12.130482
-6595.027447	4571.021333	1820.493164	-19.452137
-6595.027447	4571.021333	1819.495117	-7.917468
-6595.027447	4571.021333	1818.498047	13.181550
-6595.027447	4571.021333	1817.500000	-71.115356
-6595.027447	4571.021333	1816.500977	67.277222
-6595.027447	4571.021333	1815.502930	26.062767
-6595.027447	4571.021333	1814.504883	-24.724951
-6595.027447	4571.021333	1813.505859	24.995625
-6595.027447	4571.021333	1812.506836	108.178070
-6595.027447	4571.021333	1811.507813	23.868769
-6595.027447	4571.021333	1810.508789	-5.416155
-6595.027447	4571.021333	1809.508789	82.460960
-6595.027447	4571.021333	1808.508789	132.038208
-6595.027447	4571.021333	1807.508789	102.703316
-6595.027447	4571.021333	1806.508789	97.262421
-6595.027447	4571.021333	1805.508789	-89.783485
-6595.027447	4571.021333	1804.508789	-40.269833
-6595.027447	4571.021333	1803.507813	107.135292
-6595.027447	4571.021333	1802.506836	3.727888
-6595.027447	4571.021333	1801.505859	110.450363
-6595.027447	4571.021333	1800.504883	26.148914
-6595.027447	4571.021333	1799.502930	-103.484230
-6595.027447	4571.021333	1798.501953	53.264656
-6595.027447	4571.021333	1797.500000	19.075897
-6595.027447	4571.021333	1796.498047	11.123996
-6595.027447	4571.021333	1795.496094	-1.609092
-6595.027447	4571.021333	1794.493164	7.104930
-6595.027447	4571.021333	1793.491211	-96.242729
-6595.027447	4571.021333	1792.488281	-30.339066
-6595.027447	4571.021333	1791.485352	-35.967018
-6595.027447	4571.021333	1790.482422	249.069733
-6595.027447	4571.021333	1789.478516	0.380267
-6595.027447	4571.021333	1788.475586	-45.782825
-6595.027447	4571.021333	1787.471680	0.922627
-6595.027447	4571.021333	1786.467773	26.168837
-6595.027447	4571.021333	1785.463867	-0.976300
-6595.027447	4571.021333	1784.459961	-132.841370
-6595.027447	4571.021333	1783.455078	70.827690
-6595.027447	4571.021333	1782.450195	-160.950195
-6595.027447	4571.021333	1781.445313	-33.494816
-6595.027447	4571.021333	1780.440430	-27.385229
-6595.027447	4571.021333	1779.435547	-21.292301
-6595.027447	4571.021333	1778.429688	151.184433
-6595.027447	4571.021333	1777.424805	16.984869
-6595.027447	4571.021333	1776.418945	6.385960
-6595.027447	4571.021333	1775.413086	43.293472
-6595.027447	4571.021333	1774.406250	-90.857018
-6595.027447	4571.021333	1773.400391	24.398895
-6595.027447	4571.021333	1772.393555	-64.610649
-6595.027447	4571.021333	1771.386719	52.939598
-6595.027447	4571.021333	1770.379883	-121.519165
-6595.027447	4571.021333	1769.373047	57.670334
-6595.027447	4571.021333	1768.365234	-28.964598
-6595.027447	4571.021333	1767.358398	62.338947
-6595.027447	4571.021333	1766.350586	-5.318093
-6595.027447	4571.021333	1765.342773	-99.047882
-6595.027447	4571.021333	1764.334961	-36.278595
-6595.027447	4571.021333	1763.326172	-118.145088
-6595.027447	4571.021333	1762.318359	-72.013718
-6595.027447	4571.021333	1761.309570	78.342796
-6595.027447	4571.021333	1760.300781	20.150251
-6595.027447	4571.021333	1759.291016	44.865055
-6595.027447	4571.021333	1758.282227	-32.271637
-6595.027447	4571.021333	1757.272461	89.492767
-6595.027447	4571.021333	1756.262695	-77.609055
-6595.027447	4571.021333	1755.252930	81.959587
-6595.027447	4571.021333	1754.243164	-134.798309
-6595.027447	4571.021333	1753.233398	67.280388
-6595.027447	4571.021333	1752.222656	-28.783030
-6595.027447	4571.021333	1751.211914	12.348185
-6595.027447	4571.021333	1750.201172	17.981714
-6595.027447	4571.021333	1749.190430	-75.692917
-6595.027447	4571.021333	1748.179688	-72.434914
-6595.027447	4571.021333	1747.167969	-66.830475
-6595.027447	4571.021333	1746.156250	-6.897766
-6595.027447	4571.021333	1745.144531	-34.406246
-6595.027447	4571.021333	1744.132813	-69.002815
-6595.027447	4571.021333	1743.121094	-183.886612
-6595.027447	4571.021333	1742.108398	41.235523
-6595.027447	4571.021333	1741.095703	-80.735100
-6595.027447	4571.021333	1740.083008	87.614685
-6595.027447	4571.021333	1739.070313	-147.604675
-6595.027447	4571.021333	1738.057617	-7.640664
-6595.027447	4571.021333	1737.043945	-94.181625
-6595.027447	4571.021333	1736.030273	22.108398
-6595.027447	4571.021333	1735.016602	-47.924805
-6595.027447	4571.021333	1734.002930	-73.153709
-6595.027447	4571.021333	1732.989258	-150.236908
-6595.027447	4571.021333	1731.974609	-41.145508
-6595.027447	4571.021333	1730.959961	72.604446
-6595.027447	4571.021333	1729.945313	-20.989880
-6595.027447	4571.021333	1728.930664	90.334305
-6595.027447	4571.021333	1727.916016	1.457958
-6595.027447	4571.021333	1726.900391	84.458755
-6595.027447	4571.021333	1725.885742	2.655734
-6595.027447	4571.021333	1724.870117	87.954643
-6595.027447	4571.021333	1723.853516	-137.370026
-6595.027447	4571.021333	1722.837891	-99.147621
-6595.027447	4571.021333	1721.822266	54.295231
-6595.027447	4571.021333	1720.805664	-3.970183
-6595.027447	4571.021333	1719.789063	-29.309393
-6595.027447	4571.021333	1718.772461	55.828484
-6595.027447	4571.021333	1717.754883	-108.196709
-6595.027447	4571.021333	1716.738281	-27.796726
-6595.027447	4571.021333	1715.720703	3.224560
-6595.027447	4571.021333	1714.703125	-29.194620
-6595.027447	4571.021333	1713.685547	-33.431107
-6595.027447	4571.021333	1712.667969	-14.197197
-6595.027447	4571.021333	1711.649414	-74.797646
-6595.027447	4571.021333	1710.630859	-140.078369
-6595.027447	4571.021333	1709.612305	104.401192
-6595.027447	4571.021333	1708.593750	86.013206
-6595.027447	4571.021333	1707.575195	11.327139
-6595.027447	4571.021333	1706.555664	7.013285
-6595.027447	4571.021333	1705.536133	122.273636
-6595.027447	4571.021333	1704.516602	157.774811
-6595.027447	4571.021333	1703.497070	1.056001
-6595.027447	4571.021333	1702.477539	81.072891
-6595.027447	4571.021333	1701.457031	74.357559
-6595.027447	4571.021333	1700.437500	9.076186
-6595.027447	4571.021333	1699.416992	32.806484
-6595.027447	4571.021333	1698.395508	108.030983
-6595.027447	4571.021333	1697.375000	-32.165653
-6595.027447	4571.021333	1696.354492	171.767700
-6595.027447	4571.021333	1695.333008	36.273739
-6595.027447	4571.021333	1694.311523	95.027687
-6595.027447	4571.021333	1693.290039	109.303108
-6595.027447	4571.021333	1692.267578	130.578827
-6595.027447	4571.021333	1691.246094	88.703743
-6595.027447	4571.021333	1690.223633	-102.799706
-6595.027447	4571.021333	1689.201172	145.225189
-6595.027447	4571.021333	1688.178711	110.356682
-6595.027447	4571.021333	1687.155273	80.164391
-6595.027447	4571.021333	1686.132813	82.686737
-6595.027447	4571.021333	1685.109375	237.022278
-6595.027447	4571.021333	1684.085938	31.653425
-6595.027447	4571.021333	1683.062500	106.540291
-6595.027447	4571.021333	1682.039063	36.658588
-6595.027447	4571.021333	1681.014648	174.516388
-6595.027447	4571.021333	1679.990234	83.630318
-6595.027447	4571.021333	1678.965820	123.424828
-6595.027447	4571.021333	1677.941406	55.898106
-6595.027447	4571.021333	1676.916992	111.995613
-6595.027447	4571.021333	1675.891602	119.096977
-6595.027447	4571.021333	1674.866211	-25.343164
-6595.027447	4571.021333	1673.840820	88.988319
-6595.027447	4571.021333	1672.815430	184.627213
-6595.027447	4571.021333	1671.790039	79.851028
-6595.027447	4571.021333	1670.763672	-29.552439
-6595.027447	4571.021333	1669.737305	77.680565
-6595.027447	4571.021333	1668.710938	87.067757
-6595.027447	4571.021333	1667.684570	98.774338
-6595.027447	4571.021333	1666.658203	140.732086
-6595.027447	4571.021333	1665.630859	70.958801
-6595.027447	4571.021333	1664.603516	175.716278
-6595.027447	4571.021333	1663.576172	131.544724
-6595.027447	4571.021333	1662.548828	24.587831
-6595.027447	4571.021333	1661.520508	99.048447
-6595.027447	4571.021333	1660.493164	78.155617
-6595.027447	4571.021333	1659.464844	254.849548
-6595.027447	4571.021333	1658.436523	203.711395
-6595.027447	4571.021333	1657.408203	159.561142
-6595.027447	4571.021333	1656.378906	108.452209
-6595.027447	4571.021333	1655.350586	245.504761
-6595.027447	4571.021333	1654.321289	85.245934
-6595.027447	4571.021333	1653.291992	87.575226
-6595.027447	4571.021333	1652.261719	259.359070
-6595.027447	4571.021333	1651.232422	226.834824
-6595.027447	4571.021333	1650.202148	127.024223
-6595.027447	4571.021333	1649.171875	87.570938
-6595.027447	4571.021333	1648.141602	154.832077
-6595.027447	4571.021333	1647.111328	173.363922
-6595.027447	4571.021333	1646.080078	45.806355
-6595.027447	4571.021333	1645.049805	55.076912
-6595.027447	4571.021333	1644.018555	203.406311
-6595.027447	4571.021333	1642.987305	298.379150
-6595.027447	4571.021333	1641.955078	99.064995
-6595.027447	4571.021333	1640.923828	284.360840
-6595.027447	4571.021333	1639.891602	170.817276
-6595.027447	4571.021333	1638.859375	207.828445
-6595.027447	4571.021333	1637.827148	223.989227
-6595.027447	4571.021333	1636.794922	184.591797
-6595.027447	4571.021333	1635.761719	267.859528
-6595.027447	4571.021333	1634.729492	293.254822
-6595.027447	4571.021333	1633.696289	207.598816
-6595.027447	4571.021333	1632.662109	138.163635
-6595.027447	4571.021333	1631.628906	195.941498
-6595.027447	4571.021333	1630.594727	288.374603
-6595.027447	4571.021333	1629.561523	235.150970
-6595.027447	4571.021333	1628.527344	352.964264
-6595.027447	4571.021333	1627.493164	290.505981
-6595.027447	4571.021333	1626.458008	221.139633
-6595.027447	4571.021333	1625.423828	350.440948
-6595.027447	4571.021333	1624.388672	306.495667
-6595.027447	4571.021333	1623.353516	347.996307
-6595.027447	4571.021333	1622.318359	338.698853
-6595.027447	4571.021333	1621.282227	96.304253
-6595.027447	4571.021333	1620.247070	278.584473
-6595.027447	4571.021333	1619.210938	363.898743
-6595.027447	4571.021333	1618.174805	310.788147
-6595.027447	4571.021333	1617.137695	283.066010
-6595.027447	4571.021333	1616.101563	382.173096
-6595.027447	4571.021333	1615.064453	223.056671
-6595.027447	4571.021333	1614.027344	266.826111
-6595.027447	4571.021333	1612.990234	257.582672
-6595.027447	4571.021333	1611.953125	280.601898
-6595.027447	4571.021333	1610.916016	342.774109
-6595.027447	4571.021333	1609.877930	404.923340
-6595.027447	4571.021333	1608.839844	315.085754
-6595.027447	4571.021333	1607.801758	227.590134
-6595.027447	4571.021333	1606.763672	404.821411
-6595.027447	4571.021333	1605.724609	420.902466
-6595.027447	4571.021333	1604.685547	388.666809
-6595.027447	4571.021333	1603.646484	342.647797
-6595.027447	4571.021333	1602.607422	326.549713
-6595.027447	4571.021333	1601.568359	370.248199
-6595.027447	4571.021333	1600.528320	381.747040
-6595.027447	4571.021333	1599.489258	430.026489
-6595.027447	4571.021333	1598.449219	462.204285
-6595.027447	4571.021333	1597.408203	430.039429
-6595.027447	4571.021333	1596.368164	388.708344
-6595.027447	4571.021333	1595.327148	379.551086
-6595.027447	4571.021333	1594.287109	448.479858
-6595.027447	4571.021333	1593.246094	558.710205
-6595.027447	4571.021333	1592.204102	586.268677
-6595.027447	4571.021333	1591.163086	494.491852
-6595.027447	4571.021333	1590.121094	570.250977
-6595.027447	4571.021333	1589.079102	542.757385
-6595.027447	4571.021333	1588.037109	416.659698
-6595.027447	4571.021333	1586.995117	451.137268
-6595.027447	4571.021333	1585.953125	563.559875
-6595.027447	4571.021333	1584.910156	513.196533
-6595.027447	4571.021333	1583.867188	472.028625
-6595.027447	4571.021333	1582.824219	497.334045
-6595.027447	4571.021333	1581.781250	467.657440
-6595.027447	4571.021333	1580.737305	442.579376
-6595.027447	4571.021333	1579.693359	458.739349
-6595.027447	4571.021333	1578.649414	424.533478
-6595.027447	4571.021333	1577.605469	566.609375
-6595.027447	4571.021333	1576.561523	488.930573
-6595.027447	4571.021333	1575.516602	425.018707
-6595.027447	4571.021333	1574.472656	525.861267
-6595.027447	4571.021333	1573.427734	567.202026
-6595.027447	4571.021333	1572.381836	443.882477
-6595.027447	4571.021333	1571.336914	400.647888
-6595.027447	4571.021333	1570.291016	437.445709
-6595.027447	4571.021333	1569.246094	321.114929
-6595.027447	4571.021333	1568.200195	506.463806
-6595.027447	4571.021333	1567.153320	367.335815
-6595.027447	4571.021333	1566.107422	328.778900
-6595.027447	4571.021333	1565.060547	276.543732
-6595.027447	4571.021333	1564.013672	416.133392
-6595.027447	4571.021333	1562.966797	254.350281
-6595.027447	4571.021333	1561.919922	391.631042
-6595.027447	4571.021333	1560.872070	328.059418
-6595.027447	4571.021333	1559.825195	374.037689
-6595.027447	4571.021333	1558.777344	383.511597
-6595.027447	4571.021333	1557.729492	326.857574
-6595.027447	4571.021333	1556.680664	381.961670
-6595.027447	4571.021333	1555.632813	247.847687
-6595.027447	4571.021333	1554.583984	230.036575
-6595.027447	4571.021333	1553.535156	330.741669
-6595.027447	4571.021333	1552.486328	347.122345
-6595.027447	4571.021333	1551.436523	220.001678
-6595.027447	4571.021333	1550.387695	147.605438
-6595.027447	4571.021333	1549.337891	148.111969
-6595.027447	4571.021333	1548.288086	226.033890
-6595.027447	4571.021333	1547.238281	196.963593
-6595.027447	4571.021333	1546.187500	370.446930
-6595.027447	4571.021333	1545.136719	446.043823
-6595.027447	4571.021333	1544.086914	294.154938
-6595.027447	4571.021333	1543.035156	392.506531
-6595.027447	4571.021333	1541.984375	190.689972
-6595.027447	4571.021333	1540.933594	295.875671
-6595.027447	4571.021333	1539.881836	201.013336
-6595.027447	4571.021333	1538.830078	281.185760
-6595.027447	4571.021333	1537.778320	265.915558
-6595.027447	4571.021333	1536.725586	396.046509
-6595.027447	4571.021333	1535.673828	185.472382
-6595.027447	4571.021333	1534.621094	163.462326
-6595.027447	4571.021333	1533.568359	105.152687
-6595.027447	4571.021333	1532.515625	26.454245
-6595.027447	4571.021333	1531.461914	260.971161
-6595.027447	4571.021333	1530.409180	93.817749
-6595.027447	4571.021333	1529.355469	-9.739190
-6595.027447	4571.021333	1528.301758	50.058727
-6595.027447	4571.021333	1527.247070	134.789841
-6595.027447	4571.021333	1526.193359	74.411591
-6595.027447	4571.021333	1525.138672	11.804679
-6595.027447	4571.021333	1524.083984	150.932983
-6595.027447	4571.021333	1523.029297	0.005101
-6595.027447	4571.021333	1521.974609	16.787745
-6595.027447	4571.021333	1520.918945	-47.956562
-6595.027447	4571.021333	1519.863281	-171.532578
-6595.027447	4571.021333	1518.807617	-7.517359
-6595.027447	4571.021333	1517.751953	74.963722
-6595.027447	4571.021333	1516.696289	-25.879286
-6595.027447	4571.021333	1515.639648	-135.717850
-6595.027447	4571.021333	1514.583008	-188.939835
-6595.027447	4571.021333	1513.526367	124.279076
-6595.027447	4571.021333	1512.469727	-78.182114
-6595.027447	4571.021333	1511.412109	-86.114449
-6595.027447	4571.021333	1510.355469	-125.668465
-6595.027447	4571.021333	1509.297852	-169.710007
-6595.027447	4571.021333	1508.240234	-150.449799
-6595.027447	4571.021333	1507.181641	-85.999115
-6595.027447	4571.021333	1506.124023	25.877560
-6595.027447	4571.021333	1505.065430	-20.344151
-6595.027447	4571.021333	1504.006836	-39.436092
-6595.027447	4571.021333	1502.948242	43.075932
-6595.027447	4571.021333	1501.888672	-147.502274
-6595.027447	4571.021333	1500.830078	-207.114075
-6595.027447	4571.021333	1499.770508	-122.306145
-6595.027447	4571.021333	1498.710938	-145.774750
-6595.027447	4571.021333	1497.650391	-60.974758
-6595.027447	4571.021333	1496.590820	-134.007416
-6595.027447	4571.021333	1495.530273	-103.303017
-6595.027447	4571.021333	1494.469727	-169.499329
-6595.027447	4571.021333	1493.409180	-64.403419
-6595.027447	4571.021333	1492.348633	0.120542
-6595.027447	4571.021333	1491.287109	1.571885
-6595.027447	4571.021333	1490.225586	167.430939
-6595.027447	4571.021333	1489.164063	33.802746
-6595.027447	4571.021333	1488.102539	3.793814
-6595.027447	4571.021333	1487.041016	158.361725
-6595.027447	4571.021333	1485.978516	-74.129333
-6595.027447	4571.021333	1484.916016	82.676338
-6595.027447	4571.021333	1483.853516	115.744614
-6595.027447	4571.021333	1482.791016	-73.808723
-6595.027447	4571.021333	1481.727539	58.235069
-6595.027447	4571.021333	1480.664063	232.941086
-6595.027447	4571.021333	1479.600586	97.471497
-6595.027447	4571.021333	1478.537109	126.118828
-6595.027447	4571.021333	1477.473633	58.149231
-6595.027447	4571.021333	1476.409180	98.067688
-6595.027447	4571.021333	1475.344727	124.457741
-6595.027447	4571.021333	1474.280273	72.332115
-6595.027447	4571.021333	1473.215820	121.215775
-6595.027447	4571.021333	1472.151367	127.550644
-6595.027447	4571.021333	1471.085938	192.136703
-6595.027447	4571.021333	1470.020508	171.504669
-6595.027447	4571.021333	1468.955078	-68.741425
-6595.027447	4571.021333	1467.888672	2.651584
-6595.027447	4571.021333	1466.823242	76.288322
-6595.027447	4571.021333	1465.756836	134.096008
-6595.027447	4571.021333	1464.690430	169.541275
-6595.027447	4571.021333	1463.624023	108.921509
-6595.027447	4571.021333	1462.556641	238.333237
-6595.027447	4571.021333	1461.490234	19.031244
-6595.027447	4571.021333	1460.422852	58.907818
-6595.027447	4571.021333	1459.355469	288.814209
-6595.027447	4571.021333	1458.287109	110.300194
-6595.027447	4571.021333	1457.219727	94.472404
-6595.027447	4571.021333	1456.151367	-55.410023
-6595.027447	4571.021333	1455.083008	89.079788
-6595.027447	4571.021333	1454.014648	156.220657
-6595.027447	4571.021333	1452.945313	129.813873
-6595.027447	4571.021333	1451.876953	223.002518
-6595.027447	4571.021333	1450.807617	82.906769
-6595.027447	4571.021333	1449.738281	162.291260
-6595.027447	4571.021333	1448.668945	20.938721
-6595.027447	4571.021333	1447.598633	51.630520
-6595.027447	4571.021333	1446.528320	23.910532
-6595.027447	4571.021333	1445.458008	144.633255
-6595.027447	4571.021333	1444.387695	90.601418
-6595.027447	4571.021333	1443.317383	220.351151
-6595.027447	4571.021333	1442.246094	124.458366
-6595.027447	4571.021333	1441.174805	80.909698
-6595.027447	4571.021333	1440.103516	149.741272
-6595.027447	4571.021333	1439.032227	139.617126
-6595.027447	4571.021333	1437.960938	92.103676
-6595.027447	4571.021333	1436.888672	46.689522
-6595.027447	4571.021333	1435.816406	45.490570
-6595.027447	4571.021333	1434.744141	115.130829
-6595.027447	4571.021333	1433.670898	76.890961
-6595.027447	4571.021333	1432.598633	73.397125
-6595.027447	4571.021333	1431.525391	108.688210
-6595.027447	4571.021333	1430.452148	10.984982
-6595.027447	4571.021333	1429.378906	-6.833178
-6595.027447	4571.021333	1428.304688	17.359694
-6595.027447	4571.021333	1427.231445	52.084568
-6595.027447	4571.021333	1426.157227	52.838043
-6595.027447	4571.021333	1425.083008	-23.031773
-6595.027447	4571.021333	1424.007813	-66.489166
-6595.027447	4571.021333	1422.933594	-81.278969
-6595.027447	4571.021333	1421.858398	-15.348753
-6595.027447	4571.021333	1420.783203	-113.842201
-6595.027447	4571.021333	1419.708008	-16.982983
-6595.027447	4571.021333	1418.631836	-169.819275
-6595.027447	4571.021333	1417.555664	-62.652527
-6595.027447	4571.021333	1416.479492	-115.698624
-6595.027447	4571.021333	1415.403320	-77.808662
-6595.027447	4571.021333	1414.327148	86.068581
-6595.027447	4571.021333	1413.250000	-142.115463
-6595.027447	4571.021333	1412.173828	-104.595795
-6595.027447	4571.021333	1411.096680	-84.142349
-6595.027447	4571.021333	1410.018555	75.340111
-6595.027447	4571.021333	1408.941406	51.701893
-6595.027447	4571.021333	1407.863281	5.922711
-6595.027447	4571.021333	1406.785156	115.550964
-6595.027447	4571.021333	1405.707031	164.139832
-6595.027447	4571.021333	1404.628906	-66.565620
-6595.027447	4571.021333	1403.549805	211.810028
-6595.027447	4571.021333	1402.470703	-22.642904
-6595.027447	4571.021333	1401.391602	58.799648
-6595.027447	4571.021333	1400.312500	-46.043041
-6595.027447	4571.021333	1399.233398	92.035027
-6595.027447	4571.021333	1398.153320	-2.690729
-6595.027447	4571.021333	1397.073242	-39.603725
-6595.027447	4571.021333	1395.993164	86.290108
-6595.027447	4571.021333	1394.913086	109.823219
-6595.027447	4571.021333	1393.832031	20.032354
-6595.027447	4571.021333	1392.750977	21.673643
-6595.027447	4571.021333	1391.669922	139.484314
-6595.027447	4571.021333	1390.588867	77.315865
-6595.027447	4571.021333	1389.506836	58.080597
-6595.027447	4571.021333	1388.425781	47.441982
-6595.027447	4571.021333	1387.343750	62.967876
-6595.027447	4571.021333	1386.261719	53.703838
-6595.027447	4571.021333	1385.178711	97.038315
-6595.027447	4571.021333	1384.096680	92.212265
-6595.027447	4571.021333	1383.013672	-31.573013
-6595.027447	4571.021333	1381.930664	71.392509
-6595.027447	4571.021333	1380.846680	225.503693
-6595.027447	4571.021333	1379.763672	145.598038
-6595.027447	4571.021333	1378.679688	52.997078
-6595.027447	4571.021333	1377.595703	-57.648788
-6595.027447	4571.021333	1376.511719	6.568549
-6595.027447	4571.021333	1375.427734	-57.150318
-6595.027447	4571.021333	1374.342773	-52.876240
-6595.027447	4571.021333	1373.257813	131.120178
-6595.027447	4571.021333	1372.172852	-138.872574
-6595.027447	4571.021333	1371.087891	-4.004498
-6595.027447	4571.021333	1370.001953	143.691223
-6595.027447	4571.021333	1368.916992	72.448654
-6595.027447	4571.021333	1367.831055	6.107302
-6595.027447	4571.021333	1366.744141	158.844864
-6595.027447	4571.021333	1365.658203	-53.135963
-6595.027447	4571.021333	1364.571289	7.076212
-6595.027447	4571.021333	1363.484375	144.361496
-6595.027447	4571.021333	1362.397461	63.025925
-6595.027447	4571.021333	1361.310547	98.961494
-6595.027447	4571.021333	1360.222656	59.160076
-6595.027447	4571.021333	1359.135742	50.871025
-6595.027447	4571.021333	1358.047852	69.248619
-6595.027447	4571.021333	1356.958984	155.499344
-6595.027447	4571.021333	1355.871094	33.629284
-6595.027447	4571.021333	1354.782227	29.877779
-6595.027447	4571.021333	1353.693359	62.665771
-6595.027447	4571.021333	1352.604492	-18.844250
-6595.027447	4571.021333	1351.515625	173.829529
-6595.027447	4571.021333	1350.425781	106.236275
-6595.027447	4571.021333	1349.335938	134.219208
-6595.027447	4571.021333	1348.246094	44.264549
-6595.027447	4571.021333	1347.156250	66.343857
-6595.027447	4571.021333	1346.066406	124.230942
-6595.027447	4571.021333	1344.975586	272.134705
-6595.027447	4571.021333	1343.884766	185.456390
-6595.027447	4571.021333	1342.793945	142.734467
-6595.027447	4571.021333	1341.702148	167.791641
-6595.027447	4571.021333	1340.611328	58.355667
-6595.027447	4571.021333	1339.519531	166.793793
-6595.027447	4571.021333	1338.427734	68.129272
-6595.027447	4571.021333	1337.334961	155.383087
-6595.027447	4571.021333	1336.243164	141.584671
-6595.027447	4571.021333	1335.150391	61.224392
-6595.027447	4571.021333	1334.057617	255.918716
-6595.027447	4571.021333	1332.964844	107.577164
-6595.027447	4571.021333	1331.871094	156.879044
-6595.027447	4571.021333	1330.778320	71.646065
-6595.027447	4571.021333	1329.684570	212.637344
-6595.027447	4571.021333	1328.590820	149.499008
-6595.027447	4571.021333	1327.496094	197.982681
-6595.027447	4571.021333	1326.402344	236.955872
-6595.027447	4571.021333	1325.307617	282.455597
-6595.027447	4571.021333	1324.212891	170.345276
-6595.027447	4571.021333	1323.117188	279.980560
-6595.027447	4571.021333	1322.022461	153.699509
-6595.027447	4571.021333	1320.926758	114.481209
-6595.027447	4571.021333	1319.831055	129.736816
-6595.027447	4571.021333	1318.735352	130.251343
-6595.027447	4571.021333	1317.638672	234.153488
-6595.027447	4571.021333	1316.542969	83.405220
-6595.027447	4571.021333	1315.446289	118.193733
-6595.027447	4571.021333	1314.349609	168.214310
-6595.027447	4571.021333	1313.251953	234.939423
-6595.027447	4571.021333	1312.155273	157.723999
-6595.027447	4571.021333	1311.057617	161.073227
-6595.027447	4571.021333	1309.959961	139.843948
-6595.027447	4571.021333	1308.862305	122.852913
-6595.027447	4571.021333	1307.763672	201.026276
-6595.027447	4571.021333	1306.665039	-3.467162
-6595.027447	4571.021333	1305.566406	89.128342
-6595.027447	4571.021333	1304.467773	136.313126
-6595.027447	4571.021333	1303.369141	95.667152
-6595.027447	4571.021333	1302.269531	43.898834
-6595.027447	4571.021333	1301.169922	139.129578
-6595.027447	4571.021333	1300.070313	93.598488
-6595.027447	4571.021333	1298.970703	39.594997
-6595.027447	4571.021333	1297.870117	-1.474670
-6595.027447	4571.021333	1296.769531	86.420990
-6595.027447	4571.021333	1295.668945	32.745213
-6595.027447	4571.021333	1294.568359	11.780579
-6595.027447	4571.021333	1293.466797	84.278587
-6595.027447	4571.021333	1292.366211	-1.715826
-6595.027447	4571.021333	1291.264648	90.763382
-6595.027447	4571.021333	1290.162109	-18.634491
-6595.027447	4571.021333	1289.060547	-23.489561
-6595.027447	4571.021333	1287.958008	-85.033974
-6595.027447	4571.021333	1286.855469	-9.476568
-6595.027447	4571.021333	1285.752930	-21.293554
-6595.027447	4571.021333	1284.650391	22.330359
-6595.027447	4571.021333	1283.546875	-23.271208
-6595.027447	4571.021333	1282.444336	-63.739536
-6595.027447	4571.021333	1281.339844	91.371376
-6595.027447	4571.021333	1280.236328	165.013687
-6595.027447	4571.021333	1279.132813	-33.643517
-6595.027447	4571.021333	1278.028320	11.302282
-6595.027447	4571.021333	1276.923828	-5.069269
-6595.027447	4571.021333	1275.819336	48.970695
-6595.027447	4571.021333	1274.713867	-9.796858
-6595.027447	4571.021333	1273.608398	-38.748856
-6595.027447	4571.021333	1272.503906	-14.703166
-6595.027447	4571.021333	1271.397461	-6.024587
-6595.027447	4571.021333	1270.291992	154.015167
-6595.027447	4571.021333	1269.185547	101.367401
-6595.027447	4571.021333	1268.080078	36.323200
-6595.027447	4571.021333	1266.972656	24.368462
-6595.027447	4571.021333	1265.866211	-36.578190
-6595.027447	4571.021333	1264.759766	40.419537
-6595.027447	4571.021333	1263.652344	-90.736221
-6595.027447	4571.021333	1262.544922	-36.832130
-6595.027447	4571.021333	1261.436523	27.360626
-6595.027447	4571.021333	1260.329102	-96.552010
-6595.027447	4571.021333	1259.220703	126.718292
-6595.027447	4571.021333	1258.112305	43.360435
-6595.027447	4571.021333	1257.003906	9.628673
-6595.027447	4571.021333	1255.895508	43.703541
-6595.027447	4571.021333	1254.786133	47.567806
-6595.027447	4571.021333	1253.676758	-43.530582
-6595.027447	4571.021333	1252.567383	-38.984829
-6595.027447	4571.021333	1251.458008	-122.371223
-6595.027447	4571.021333	1250.347656	-17.185499
-6595.027447	4571.021333	1249.237305	-81.152870
-6595.027447	4571.021333	1248.126953	15.820768
-6595.027447	4571.021333	1247.016602	-61.771542
-6595.027447	4571.021333	1245.905273	-60.346882
-6595.027447	4571.021333	1244.793945	-12.943000
-6595.027447	4571.021333	1243.682617	-1.063926
-6595.027447	4571.021333	1242.571289	-3.276192
-6595.027447	4571.021333	1241.459961	159.254547
-6595.027447	4571.021333	1240.347656	43.592709
-6595.027447	4571.021333	1239.235352	162.421204
-6595.027447	4571.021333	1238.123047	104.988449
-6595.027447	4571.021333	1237.009766	95.823700
-6595.027447	4571.021333	1235.897461	74.014580
-6595.027447	4571.021333	1234.784180	148.775970
-6595.027447	4571.021333	1233.670898	90.519318
-6595.027447	4571.021333	1232.556641	49.893009
-6595.027447	4571.021333	1231.443359	-60.519257
-6595.027447	4571.021333	1230.329102	49.569706
-6595.027447	4571.021333	1229.214844	-61.305645
-6595.027447	4571.021333	1228.099609	25.839560
-6595.027447	4571.021333	1226.985352	59.338470
-6595.027447	4571.021333	1225.870117	-43.189644
-6595.027447	4571.021333	1224.754883	31.353134
-6595.027447	4571.021333	1223.639648	3.069721
-6595.027447	4571.021333	1222.523438	115.061218
-6595.027447	4571.021333	1221.408203	76.057228
-6595.027447	4571.021333	1220.291992	47.368473
-6595.027447	4571.021333	1219.174805	67.202858
-6595.027447	4571.021333	1218.058594	77.581970
-6595.027447	4571.021333	1216.941406	109.524055
-6595.027447	4571.021333	1215.824219	152.480042
-6595.027447	4571.021333	1214.707031	147.359512
-6595.027447	4571.021333	1213.589844	121.163315
-6595.027447	4571.021333	1212.471680	46.600513
-6595.027447	4571.021333	1211.353516	154.815384
-6595.027447	4571.021333	1210.235352	53.648636
-6595.027447	4571.021333	1209.117188	97.870697
-6595.027447	4571.021333	1207.998047	87.886421
-6595.027447	4571.021333	1206.878906	-45.169685
-6595.027447	4571.021333	1205.759766	153.390274
-6595.027447	4571.021333	1204.640625	93.387489
-6595.027447	4571.021333	1203.520508	-10.345423
-6595.027447	4571.021333	1202.401367	-12.088214
-6595.027447	4571.021333	1201.281250	-9.841091
-6595.027447	4571.021333	1200.160156	23.275747
-6595.027447	4571.021333	1199.040039	63.485466
-6595.027447	4571.021333	1197.918945	-89.958214
-6595.027447	4571.021333	1196.797852	-20.677151
-6595.027447	4571.021333	1195.676758	-71.508835
-6595.027447	4571.021333	1194.555664	-34.688206
-6595.027447	4571.021333	1193.433594	17.629097
-6595.027447	4571.021333	1192.311523	-61.936600
-6595.027447	4571.021333	1191.189453	-98.746216
-6595.027447	4571.021333	1190.066406	-71.448059
-6595.027447	4571.021333	1188.944336	-46.790661
-6595.027447	4571.021333	1187.821289	31.049559
-6595.027447	4571.021333	1186.698242	-131.025330
-6595.027447	4571.021333	1185.574219	-73.480042
-6595.027447	4571.021333	1184.451172	-153.275009
-6595.027447	4571.021333	1183.327148	-206.400146
-6595.027447	4571.021333	1182.203125	-137.526596
-6595.027447	4571.021333	1181.078125	-65.965736
-6595.027447	4571.021333	1179.954102	-121.976875
-6595.027447	4571.021333	1178.829102	-64.516167
-6595.027447	4571.021333	1177.704102	-98.557526
-6595.027447	4571.021333	1176.579102	-34.754337
-6595.027447	4571.021333	1175.453125	-86.972160
-6595.027447	4571.021333	1174.327148	-144.961273
-6595.027447	4571.021333	1173.201172	-99.187073
-6595.027447	4571.021333	1172.075195	-28.016783
-6595.027447	4571.021333	1170.949219	-2.627230
-6595.027447	4571.021333	1169.822266	-132.311203
-6595.027447	4571.021333	1168.695313	-93.821922
-6595.027447	4571.021333	1167.568359	-116.385498
-6595.027447	4571.021333	1166.440430	-62.605270
-6595.027447	4571.021333	1165.313477	-105.563278
-6595.027447	4571.021333	1164.185547	-7.292812
-6595.027447	4571.021333	1163.057617	-198.696976
-6595.027447	4571.021333	1161.928711	-122.954781
-6595.027447	4571.021333	1160.800781	-55.711735
-6595.027447	4571.021333	1159.671875	-145.823883
-6595.027447	4571.021333	1158.541992	-67.753662
-6595.027447	4571.021333	1157.413086	-53.027927
-6595.027447	4571.021333	1156.283203	-54.775169
-6595.027447	4571.021333	1155.154297	-53.011005
-6595.027447	4571.021333	1154.023438	33.720276
-6595.027447	4571.021333	1152.893555	-102.270988
-6595.027447	4571.021333	1151.763672	32.717537
-6595.027447	4571.021333	1150.632813	4.173848
-6595.027447	4571.021333	1149.501953	-6.829069
-6595.027447	4571.021333	1148.370117	-27.028809
-6595.027447	4571.021333	1147.239258	-3.096251
-6595.027447	4571.021333	1146.107422	9.684846
-6595.027447	4571.021333	1144.975586	17.504181
-6595.027447	4571.021333	1143.843750	78.606361
-6595.027447	4571.021333	1142.710938	18.410044
-6595.027447	4571.021333	1141.578125	55.277790
-6595.027447	4571.021333	1140.445313	28.069439
-6595.027447	4571.021333	1139.312500	-127.100761
-6595.027447	4571.021333	1138.178711	96.471992
-6595.027447	4571.021333	1137.045898	0.057254
-6595.027447	4571.021333	1135.912109	43.619820
-6595.027447	4571.021333	1134.777344	108.430176
-6595.027447	4571.021333	1133.643555	176.659286
-6595.027447	4571.021333	1132.508789	267.251404
-6595.027447	4571.021333	1131.374023	204.557388
-6595.027447	4571.021333	1130.239258	144.838486
-6595.027447	4571.021333	1129.104492	321.208435
-6595.027447	4571.021333	1127.968750	253.931137
-6595.027447	4571.021333	1126.833008	105.557655
-6595.027447	4571.021333	1125.697266	-13.266026
-6595.027447	4571.021333	1124.560547	115.372917
-6595.027447	4571.021333	1123.424805	57.759216
-6595.027447	4571.021333	1122.288086	16.726311
-6595.027447	4571.021333	1121.151367	24.504957
-6595.027447	4571.021333	1120.013672	55.675449
-6595.027447	4571.021333	1118.876953	34.568924
-6595.027447	4571.021333	1117.739258	-7.024149
-6595.027447	4571.021333	1116.601563	-124.672813
-6595.027447	4571.021333	1115.462891	28.244247
-6595.027447	4571.021333	1114.324219	-9.985072
-6595.027447	4571.021333	1113.186523	54.886105
-6595.027447	4571.021333	1112.046875	-4.887667
-6595.027447	4571.021333	1110.908203	139.425919
-6595.027447	4571.021333	1109.769531	42.254814
-6595.027447	4571.021333	1108.629883	114.449364
-6595.027447	4571.021333	1107.490234	81.845795
-6595.027447	4571.021333	1106.349609	64.627953
-6595.027447	4571.021333	1105.209961	52.022484
-6595.027447	4571.021333	1104.069336	149.388718
-6595.027447	4571.021333	1102.928711	98.054619
-6595.027447	4571.021333	1101.787109	131.707413
-6595.027447	4571.021333	1100.646484	71.304749
-6595.027447	4571.021333	1099.504883	56.458385
-6595.027447	4571.021333	1098.363281	140.599304
-6595.027447	4571.021333	1097.221680	78.269051
-6595.027447	4571.021333	1096.079102	32.518646
-6595.027447	4571.021333	1094.936523	117.298119
-6595.027447	4571.021333	1093.793945	87.416588
-6595.027447	4571.021333	1092.651367	154.687576
-6595.027447	4571.021333	1091.507813	43.209469
-6595.027447	4571.021333	1090.364258	84.607109
-6595.027447	4571.021333	1089.220703	220.862473
-6595.027447	4571.021333	1088.077148	123.416023
-6595.027447	4571.021333	1086.933594	82.081291
-6595.027447	4571.021333	1085.789063	26.394182
-6595.027447	4571.021333	1084.644531	61.568890
-6595.027447	4571.021333	1083.499023	19.556353
-6595.027447	4571.021333	1082.354492	25.780518
-6595.027447	4571.021333	1081.208984	23.550943
-6595.027447	4571.021333	1080.063477	53.992470
-6595.027447	4571.021333	1078.917969	-80.941727
-6595.027447	4571.021333	1077.771484	-72.541412
-6595.027447	4571.021333	1076.625977	-42.262043
-6595.027447	4571.021333	1075.479492	-69.497665
-6595.027447	4571.021333	1074.332031	-36.789227
-6595.027447	4571.021333	1073.185547	75.348244
-6595.027447	4571.021333	1072.038086	109.818558
-6595.027447	4571.021333	1070.890625	73.964828
-6595.027447	4571.021333	1069.743164	-13.591796
-6595.027447	4571.021333	1068.594727	119.849655
-6595.027447	4571.021333	1067.447266	-66.304466
-6595.027447	4571.021333	1066.298828	38.452698
-6595.027447	4571.021333	1065.149414	-9.463254
-6595.027447	4571.021333	1064.000977	41.256863
-6595.027447	4571.021333	1062.851563	131.150192
-6595.027447	4571.021333	1061.702148	165.922119
-6595.027447	4571.021333	1060.552734	140.954575
-6595.027447	4571.021333	1059.402344	211.540329
-6595.027447	4571.021333	1058.252930	32.177528
-6595.027447	4571.021333	1057.102539	111.846680
-6595.027447	4571.021333	1055.951172	64.564949
-6595.027447	4571.021333	1054.800781	21.949121
-6595.027447	4571.021333	1053.649414	75.322502
-6595.027447	4571.021333	1052.498047	34.782581
-6595.027447	4571.021333	1051.346680	-44.383949
-6595.027447	4571.021333	1050.194336	-83.536140
-6595.027447	4571.021333	1049.042969	7.991106
-6595.027447	4571.021333	1047.890625	-43.495476
-6595.027447	4571.021333	1046.738281	-56.490208
-6595.027447	4571.021333	1045.584961	-109.572830
-6595.027447	4571.021333	1044.431641	14.081676
-6595.027447	4571.021333	1043.278320	-58.040779
-6595.027447	4571.021333	1042.125000	8.607247
-6595.027447	4571.021333	1040.971680	115.091751
-6595.027447	4571.021333	1039.817383	-15.942395
-6595.027447	4571.021333	1038.663086	7.686755
-6595.027447	4571.021333	1037.508789	-22.752167
-6595.027447	4571.021333	1036.353516	25.359356
-6595.027447	4571.021333	1035.198242	73.112930
-6595.027447	4571.021333	1034.042969	43.901699
-6595.027447	4571.021333	1032.887695	212.217438
-6595.027447	4571.021333	1031.732422	110.460136
-6595.027447	4571.021333	1030.576172	20.353790
-6595.027447	4571.021333	1029.419922	-40.284908
-6595.027447	4571.021333	1028.263672	90.925461
-6595.027447	4571.021333	1027.106445	116.964783
-6595.027447	4571.021333	1025.949219	38.033512
-6595.027447	4571.021333	1024.792969	185.682205
-6595.027447	4571.021333	1023.634766	-14.534411
-6595.027447	4571.021333	1022.477539	66.391594
-6595.027447	4571.021333	1021.319336	16.151360
-6595.027447	4571.021333	1020.161133	-18.683565
-6595.027447	4571.021333	1019.002930	72.085136
-6595.027447	4571.021333	1017.843750	33.458851
-6595.027447	4571.021333	1016.684570	27.568199
-6595.027447	4571.021333	1015.525391	-54.893387
-6595.027447	4571.021333	1014.366211	-41.057171
-6595.027447	4571.021333	1013.207031	-38.173077
-6595.027447	4571.021333	1012.046875	-23.220655
-6595.027447	4571.021333	1010.886719	88.560081
-6595.027447	4571.021333	1009.726563	48.160423
-6595.027447	4571.021333	1008.565430	15.985107
-6595.027447	4571.021333	1007.404297	-19.340166
-6595.027447	4571.021333	1006.243164	-6.149305
-6595.027447	4571.021333	1005.082031	108.957184
-6595.027447	4571.021333	1003.920898	29.000362
-6595.027447	4571.021333	1002.758789	43.286366
-6595.027447	4571.021333	1001.596680	-11.970753
-6595.027447	4571.021333	1000.433594	1.738752
-6595.027447	4571.021333	999.271484	96.858994
-6595.027447	4571.021333	998.108398	-56.516880
-6595.027447	4571.021333	996.945313	55.329075
-6595.027447	4571.021333	995.782227	29.434042
-6595.027447	4571.021333	994.618164	-9.346508
-6595.027447	4571.021333	993.454102	105.620872
-6595.027447	4571.021333	992.290039	123.808426
-6595.027447	4571.021333	991.125977	74.457428
-6595.027447	4571.021333	989.960938	-60.399868
-6595.027447	4571.021333	988.796875	69.679565
-6595.027447	4571.021333	987.630859	27.999886
-6595.027447	4571.021333	986.465820	25.152580
-6595.027447	4571.021333	985.300781	87.745583
-6595.027447	4571.021333	984.134766	83.945450
-6595.027447	4571.021333	982.968750	114.877274
-6595.027447	4571.021333	981.801758	64.813080
-6595.027447	4571.021333	980.635742	66.917007
-6595.027447	4571.021333	979.468750	125.901520
-6595.027447	4571.021333	978.301758	63.567947
-6595.027447	4571.021333	977.133789	-22.758926
-6595.027447	4571.021333	975.966797	161.748077
-6595.027447	4571.021333	974.798828	39.091492
-6595.027447	4571.021333	973.630859	28.393919
-6595.027447	4571.021333	972.461914	208.294617
-6595.027447	4571.021333	971.293945	135.385834
-6595.027447	4571.021333	970.125000	27.199947
-6595.027447	4571.021333	968.956055	111.029930
-6595.027447	4571.021333	967.786133	97.913017
-6595.027447	4571.021333	966.617188	42.752918
-6595.027447	4571.021333	965.447266	216.721222
-6595.027447	4571.021333	964.276367	213.840439
-6595.027447	4571.021333	963.106445	107.126579
-6595.027447	4571.021333	961.935547	215.293716
-6595.027447	4571.021333	960.764648	35.522476
-6595.027447	4571.021333	959.593750	110.585838
-6595.027447	4571.021333	958.422852	132.201126
-6595.027447	4571.021333	957.250977	89.241554
-6595.027447	4571.021333	956.079102	2.637704
-6595.027447	4571.021333	954.907227	93.082970
-6595.027447	4571.021333	953.734375	203.953018
-6595.027447	4571.021333	952.562500	185.829605
-6595.027447	4571.021333	951.389648	106.506546
-6595.027447	4571.021333	950.215820	108.142075
-6595.027447	4571.021333	949.042969	-87.455528
-6595.027447	4571.021333	947.869141	-87.558342
-6595.027447	4571.021333	946.695313	-21.489281
-6595.027447	4571.021333	945.521484	-34.078888
-6595.027447	4571.021333	944.346680	83.898643
-6595.027447	4571.021333	943.172852	61.442440
-6595.027447	4571.021333	941.998047	41.385933
-6595.027447	4571.021333	940.822266	119.972321
-6595.027447	4571.021333	939.647461	45.554688
-6595.027447	4571.021333	938.471680	-51.102837
-6595.027447	4571.021333	937.295898	-145.327118
-6595.027447	4571.021333	936.119141	0.093499
-6595.027447	4571.021333	934.943359	51.682953
-6595.027447	4571.021333	933.766602	-5.382469
-6595.027447	4571.021333	932.589844	98.110840
-6595.027447	4571.021333	931.413086	-42.905476
-6595.027447	4571.021333	930.235352	226.031250
-6595.027447	4571.021333	929.057617	149.220078
-6595.027447	4571.021333	927.879883	-73.206711
-6595.027447	4571.021333	926.702148	84.547272
-6595.027447	4571.021333	925.523438	175.680084
-6595.027447	4571.021333	924.344727	-58.985367
-6595.027447	4571.021333	923.166016	32.147099
-6595.027447	4571.021333	921.987305	19.643375
-6595.027447	4571.021333	920.807617	36.753780
-6595.027447	4571.021333	919.627930	40.121017
-6595.027447	4571.021333	919.497070	138.091782
-6595.027447	4571.021333	918.331055	41.739082
-6595.027447	4571.021333	917.165039	-47.170029
-6595.027447	4571.021333	915.999023	-42.379719
-6595.027447	4571.021333	914.833008	36.339462
-6595.027447	4571.021333	913.666016	-0.749443
-6595.027447	4571.021333	912.499023	6.521121
-6595.027447	4571.021333	911.332031	-129.032486
-6595.027447	4571.021333	910.165039	13.693214
-6595.027447	4571.021333	908.997070	215.449554
-6595.027447	4571.021333	907.830078	52.890942
-6595.027447	4571.021333	906.661133	-21.006329
-6595.027447	4571.021333	905.493164	-25.985746
-6595.027447	4571.021333	904.325195	8.398355
-6595.027447	4571.021333	903.156250	20.648312
-6595.027447	4571.021333	901.987305	136.161575
-6595.027447	4571.021333	900.818359	182.810165
-6595.027447	4571.021333	899.648438	67.251686
-6595.027447	4571.021333	898.478516	-31.051973
-6595.027447	4571.021333	897.308594	3.347353
-6595.027447	4571.021333	896.138672	40.196659
-6595.027447	4571.021333	894.968750	3.371846
-6595.027447	4571.021333	893.797852	57.410431
-6595.027447	4571.021333	892.626953	54.980305
-6595.027447	4571.021333	891.456055	35.380215
-6595.027447	4571.021333	890.284180	25.613014
-6595.027447	4571.021333	889.113281	50.197628
-6595.027447	4571.021333	887.941406	-45.392853
-6595.027447	4571.021333	886.768555	74.847351
-6595.027447	4571.021333	885.596680	77.368263
-6595.027447	4571.021333	884.423828	136.272400
-6595.027447	4571.021333	883.250977	8.917544
-6595.027447	4571.021333	882.078125	21.274761
-6595.027447	4571.021333	880.905273	60.579296
-6595.027447	4571.021333	879.731445	33.752979
-6595.027447	4571.021333	878.557617	99.989487
-6595.027447	4571.021333	877.383789	82.971802
-6595.027447	4571.021333	876.209961	-29.486721
-6595.027447	4571.021333	875.035156	124.838493
-6595.027447	4571.021333	873.860352	173.905243
-6595.027447	4571.021333	872.685547	-65.675758
-6595.027447	4571.021333	871.510742	-182.874863
-6595.027447	4571.021333	870.334961	54.513962
-6595.027447	4571.021333	869.159180	-6.422616
-6595.027447	4571.021333	867.983398	-72.216957
-6595.027447	4571.021333	866.807617	-18.244688
-6595.027447	4571.021333	865.630859	-40.020988
-6595.027447	4571.021333	864.454102	50.574009
-6595.027447	4571.021333	863.277344	-112.835335
-6595.027447	4571.021333	862.100586	-75.966461
-6595.027447	4571.021333	860.922852	-36.664135
-6595.027447	4571.021333	859.745117	73.402916
-6595.027447	4571.021333	858.567383	15.066065
-6595.027447	4571.021333	857.389648	64.097122
-6595.027447	4571.021333	856.210938	-45.421913
-6595.027447	4571.021333	855.032227	-191.470352
-6595.027447	4571.021333	853.853516	-49.766621
-6595.027447	4571.021333	852.674805	-112.870476
-6595.027447	4571.021333	851.495117	67.762001
-6595.027447	4571.021333	850.315430	-56.244038
-6595.027447	4571.021333	849.135742	-48.649506
-6595.027447	4571.021333	847.956055	0.348623
-6595.027447	4571.021333	846.775391	78.552559
-6595.027447	4571.021333	845.595703	-135.420029
-6595.027447	4571.021333	844.415039	-93.726257
-6595.027447	4571.021333	843.233398	-0.939566
-6595.027447	4571.021333	842.052734	-63.906654
-6595.027447	4571.021333	840.871094	-5.216288
-6595.027447	4571.021333	839.689453	-60.854172
-6595.027447	4571.021333	838.506836	-94.580620
-6595.027447	4571.021333	837.325195	-26.192053
-6595.027447	4571.021333	836.142578	-21.021866
-6595.027447	4571.021333	834.959961	-117.914185
-6595.027447	4571.021333	833.777344	-122.443932
-6595.027447	4571.021333	832.593750	6.628075
-6595.027447	4571.021333	831.410156	-39.206837
-6595.027447	4571.021333	830.226563	-14.611010
-6595.027447	4571.021333	829.042969	-50.713573
-6595.027447	4571.021333	827.858398	-69.809540
-6595.027447	4571.021333	826.673828	-69.486694
-6595.027447	4571.021333	825.489258	-78.868805
-6595.027447	4571.021333	824.304688	35.453068
-6595.027447	4571.021333	823.120117	21.199869
-6595.027447	4571.021333	821.934570	-36.687588
-6595.027447	4571.021333	820.749023	19.375761
-6595.027447	4571.021333	819.562500	31.793116
-6595.027447	4571.021333	818.376953	-40.606445
-6595.027447	4571.021333	817.190430	-69.370285
-6595.027447	4571.021333	816.003906	-158.676041
-6595.027447	4571.021333	814.817383	-15.481958
-6595.027447	4571.021333	813.629883	-20.029902
-6595.027447	4571.021333	812.442383	-80.252373
-6595.027447	4571.021333	811.254883	41.048111
-6595.027447	4571.021333	810.067383	89.708206
-6595.027447	4571.021333	808.878906	27.070993
-6595.027447	4571.021333	807.690430	24.917841
-6595.027447	4571.021333	806.501953	-6.256405
-6595.027447	4571.021333	805.313477	-71.267937
-6595.027447	4571.021333	804.124023	-116.919693
-6595.027447	4571.021333	802.934570	-34.483032
-6595.027447	4571.021333	801.745117	-138.120346
-6595.027447	4571.021333	800.555664	28.817026
-6595.027447	4571.021333	799.365234	65.270233
-6595.027447	4571.021333	798.175781	96.868790
-6595.027447	4571.021333	796.985352	5.334168
-6595.027447	4571.021333	795.793945	-76.513138
-6595.027447	4571.021333	794.603516	-131.794571
-6595.027447	4571.021333	793.412109	-90.557747
-6595.027447	4571.021333	792.220703	-42.110104
-6595.027447	4571.021333	791.028320	114.829788
-6595.027447	4571.021333	789.836914	-56.207588
-6595.027447	4571.021333	788.644531	-46.391022
-6595.027447	4571.021333	787.452148	35.711823
-6595.027447	4571.021333	786.258789	-74.988274
-6595.027447	4571.021333	785.066406	-24.251774
-6595.027447	4571.021333	783.873047	-4.854478
-6595.027447	4571.021333	782.679688	-67.349869
-6595.027447	4571.021333	781.485352	89.257278
-6595.027447	4571.021333	780.291992	50.814960
-6595.027447	4571.021333	779.097656	-93.507881
-6595.027447	4571.021333	777.903320	-93.421417
-6595.027447	4571.021333	776.708008	10.092944
-6595.027447	4571.021333	775.512695	-23.535791
-6595.027447	4571.021333	774.318359	132.791336
-6595.027447	4571.021333	773.122070	43.834309
-6595.027447	4571.021333	771.926758	-146.051758
-6595.027447	4571.021333	770.730469	77.451836
-6595.027447	4571.021333	769.534180	-102.778114
-6595.027447	4571.021333	768.337891	48.532490
-6595.027447	4571.021333	767.141602	19.649944
-6595.027447	4571.021333	765.944336	-2.030801
-6595.027447	4571.021333	764.747070	-30.919998
-6595.027447	4571.021333	763.549805	172.989853
-6595.027447	4571.021333	762.351563	86.456932
-6595.027447	4571.021333	761.154297	33.526909
-6595.027447	4571.021333	759.956055	-12.200537
-6595.027447	4571.021333	758.757813	-17.159517
-6595.027447	4571.021333	757.558594	104.937881
-6595.027447	4571.021333	756.359375	-137.384399
-6595.027447	4571.021333	755.160156	56.546154
-6595.027447	4571.021333	753.960938	106.614014
-6595.027447	4571.021333	752.761719	120.709000
-6595.027447	4571.021333	751.561523	91.670219
-6595.027447	4571.021333	750.361328	12.338081
-6595.027447	4571.021333	749.160156	210.730377
-6595.027447	4571.021333	747.959961	28.443392
-6595.027447	4571.021333	746.758789	95.090141
-6595.027447	4571.021333	745.557617	44.453503
-6595.027447	4571.021333	744.356445	36.872997
-6595.027447	4571.021333	743.154297	50.799923
-6595.027447	4571.021333	741.952148	198.597763
-6595.027447	4571.021333	740.750000	119.209099
-6595.027447	4571.021333	739.547852	166.503250
-6595.027447	4571.021333	738.344727	149.239044
-6595.027447	4571.021333	737.142578	210.794861
-6595.027447	4571.021333	735.939453	160.041199
-6595.027447	4571.021333	734.735352	61.526039
-6595.027447	4571.021333	733.532227	282.957489
-6595.027447	4571.021333	732.328125	291.825531
-6595.027447	4571.021333	731.124023	400.900574
-6595.027447	4571.021333	729.918945	259.370544
-6595.027447	4571.021333	728.714844	182.281601
-6595.027447	4571.021333	727.509766	140.977097
-6595.027447	4571.021333	726.303711	152.125610
-6595.027447	4571.021333	725.098633	315.821320
-6595.027447	4571.021333	723.892578	121.888374
-6595.027447	4571.021333	722.686523	171.082733
-6595.027447	4571.021333	721.480469	146.368484
-6595.027447	4571.021333	720.274414	66.849831
-6595.027447	4571.021333	719.067383	-105.543320
-6595.027447	4571.021333	717.860352	129.270752
-6595.027447	4571.021333	716.653320	78.288849
-6595.027447	4571.021333	715.445313	-15.540145
-6595.027447	4571.021333	714.238281	45.311466
-6595.027447	4571.021333	713.030273	110.867668
-6595.027447	4571.021333	711.821289	228.697464
-6595.027447	4571.021333	710.613281	118.150009
-6595.027447	4571.021333	709.404297	9.998161
-6595.027447	4571.021333	708.195313	-26.827021
-6595.027447	4571.021333	706.986328	100.317291
-6595.027447	4571.021333	705.776367	49.171795
-6595.027447	4571.021333	704.566406	171.434235
-6595.027447	4571.021333	703.356445	72.730354
-6595.027447	4571.021333	702.146484	47.648312
-6595.027447	4571.021333	700.935547	103.265144
-6595.027447	4571.021333	699.724609	4.542866
-6595.027447	4571.021333	698.513672	235.689285
-6595.027447	4571.021333	697.302734	132.169495
-6595.027447	4571.021333	696.090820	106.940849
-6595.027447	4571.021333	694.878906	164.695450
-6595.027447	4571.021333	693.666992	137.032715
-6595.027447	4571.021333	692.455078	130.682907
-6595.027447	4571.021333	691.242188	233.327393
-6595.027447	4571.021333	690.029297	186.610077
-6595.027447	4571.021333	688.816406	241.749054
-6595.027447	4571.021333	687.602539	57.601837
-6595.027447	4571.021333	686.389648	79.521667
-6595.027447	4571.021333	685.175781	82.457664
-6595.027447	4571.021333	683.960938	82.991127
-6595.027447	4571.021333	682.747070	74.021362
-6595.027447	4571.021333	681.532227	197.523224
-6595.027447	4571.021333	680.317383	136.419189
-6595.027447	4571.021333	679.102539	245.593918
-6595.027447	4571.021333	677.886719	92.213821
-6595.027447	4571.021333	676.670898	236.742035
-6595.027447	4571.021333	675.455078	296.082245
-6595.027447	4571.021333	674.239258	163.947250
-6595.027447	4571.021333	673.022461	159.414490
-6595.027447	4571.021333	671.805664	171.381836
-6595.027447	4571.021333	670.588867	166.775436
-6595.027447	4571.021333	669.372070	133.800278
-6595.027447	4571.021333	668.154297	155.097244
-6595.027447	4571.021333	666.936523	164.547195
-6595.027447	4571.021333	665.718750	152.718918
-6595.027447	4571.021333	664.500977	152.653854
-6595.027447	4571.021333	663.282227	176.138275
-6595.027447	4571.021333	662.063477	282.110840
-6595.027447	4571.021333	660.844727	218.249222
-6595.027447	4571.021333	659.625000	34.162369
-6595.027447	4571.021333	658.405273	130.558105
-6595.027447	4571.021333	657.185547	149.121460
-6595.027447	4571.021333	655.965820	49.855839
-6595.027447	4571.021333	654.745117	150.783173
-6595.027447	4571.021333	653.525391	82.093887
-6595.027447	4571.021333	652.303711	131.104736
-6595.027447	4571.021333	651.083008	38.835419
-6595.027447	4571.021333	649.861328	47.754009
-6595.027447	4571.021333	648.640625	75.452095
-6595.027447	4571.021333	647.417969	72.522453
-6595.027447	4571.021333	646.196289	149.512512
-6595.027447	4571.021333	644.973633	-25.144520
-6595.027447	4571.021333	643.750977	72.913422
-6595.027447	4571.021333	642.528320	27.530638
-6595.027447	4571.021333	641.305664	-20.220539
-6595.027447	4571.021333	640.082031	54.168373
-6595.027447	4571.021333	638.858398	126.139191
-6595.027447	4571.021333	637.634766	125.247169
-6595.027447	4571.021333	636.410156	75.016357
-6595.027447	4571.021333	635.185547	-15.134270
-6595.027447	4571.021333	633.960938	66.025871
-6595.027447	4571.021333	632.736328	125.998360
-6595.027447	4571.021333	631.510742	75.658722
-6595.027447	4571.021333	630.285156	-14.565619
-6595.027447	4571.021333	629.059570	87.478310
-6595.027447	4571.021333	627.833984	144.901505
-6595.027447	4571.021333	626.607422	-3.985535
-6595.027447	4571.021333	625.380859	88.506958
-6595.027447	4571.021333	624.154297	30.988546
-6595.027447	4571.021333	622.927734	-14.831116
-6595.027447	4571.021333	621.700195	-13.833027
-6595.027447	4571.021333	620.472656	-33.942978
-6595.027447	4571.021333	619.245117	23.163948
-6595.027447	4571.021333	618.016602	35.745850
-6595.027447	4571.021333	616.788086	-42.963772
-6595.027447	4571.021333	615.559570	2.304849
-6595.027447	4571.021333	614.331055	-13.288869
-6595.027447	4571.021333	613.101563	85.663979
-6595.027447	4571.021333	611.872070	-2.481880
-6595.027447	4571.021333	610.642578	110.380272
-6595.027447	4571.021333	609.413086	92.301010
-6595.027447	4571.021333	608.182617	6.442560
-6595.027447	4571.021333	606.952148	-16.347027
-6595.027447	4571.021333	605.721680	164.009201
-6595.027447	4571.021333	604.491211	-87.680817
-6595.027447	4571.021333	603.259766	-40.507858
-6595.027447	4571.021333	602.028320	4.278603
-6595.027447	4571.021333	600.796875	74.679871
-6595.027447	4571.021333	599.564453	79.699867
-6595.027447	4571.021333	598.332031	-52.920555
-6595.027447	4571.021333	597.099609	112.956161
-6595.027447	4571.021333	595.867188	110.876274
-6595.027447	4571.021333	594.633789	-98.677368
-6595.027447	4571.021333	593.400391	15.742273
-6595.027447	4571.021333	592.166992	-26.014807
-6595.027447	4571.021333	590.933594	62.658710
-6595.027447	4571.021333	589.699219	-93.263664
-6595.027447	4571.021333	588.464844	-23.299608
-6595.027447	4571.021333	587.230469	-72.114250
-6595.027447	4571.021333	585.995117	-62.753651
-6595.027447	4571.021333	584.760742	-116.248474
-6595.027447	4571.021333	583.525391	88.475723
-6595.027447	4571.021333	582.289063	60.499378
-6595.027447	4571.021333	581.053711	-74.457527
-6595.027447	4571.021333	579.817383	13.803355
-6595.027447	4571.021333	578.581055	-46.759354
-6595.027447	4571.021333	577.343750	32.109940
-6595.027447	4571.021333	576.107422	41.220734
-6595.027447	4571.021333	574.870117	64.239037
-6595.027447	4571.021333	573.631836	159.216537
-6595.027447	4571.021333	572.394531	73.023399
-6595.027447	4571.021333	571.156250	42.556499
-6595.027447	4571.021333	569.917969	42.251663
-6595.027447	4571.021333	568.679688	-4.482895
-6595.027447	4571.021333	567.440430	32.295815
-6595.027447	4571.021333	566.202148	85.275063
-6595.027447	4571.021333	564.961914	-24.115644
-6595.027447	4571.021333	563.722656	-29.149532
-6595.027447	4571.021333	562.482422	-8.705326
-6595.027447	4571.021333	561.243164	-53.175713
-6595.027447	4571.021333	560.001953	-11.921856
-6595.027447	4571.021333	558.761719	-23.980480
-6595.027447	4571.021333	557.520508	19.529842
-6595.027447	4571.021333	556.279297	49.111557
-6595.027447	4571.021333	555.038086	-106.532661
-6595.027447	4571.021333	553.795898	154.475128
-6595.027447	4571.021333	552.554688	63.634518
-6595.027447	4571.021333	551.311523	134.757431
-6595.027447	4571.021333	550.069336	85.562309
-6595.027447	4571.021333	548.826172	52.559803
-6595.027447	4571.021333	547.583984	68.111427
-6595.027447	4571.021333	546.339844	37.410324
-6595.027447	4571.021333	545.096680	76.040771
-6595.027447	4571.021333	543.852539	-12.435874
-6595.027447	4571.021333	542.608398	88.534233
-6595.027447	4571.021333	541.364258	60.117630
-6595.027447	4571.021333	540.119141	-7.552005
-6595.027447	4571.021333	538.875000	-24.413836
-6595.027447	4571.021333	537.628906	4.879397
-6595.027447	4571.021333	536.383789	-44.303215
-6595.027447	4571.021333	535.137695	-10.421432
-6595.027447	4571.021333	533.892578	-13.465169
-6595.027447	4571.021333	532.645508	-74.169769
-6595.027447	4571.021333	531.399414	-77.214928
-6595.027447	4571.021333	530.152344	-216.265060
-6595.027447	4571.021333	528.905273	-37.231617
-6595.027447	4571.021333	527.658203	-74.863663
-6595.027447	4571.021333	526.410156	-103.271759
-6595.027447	4571.021333	525.163086	22.636221
-6595.027447	4571.021333	523.914063	-111.710648
-6595.027447	4571.021333	522.666016	-165.428085
-6595.027447	4571.021333	521.416992	-106.349525
-6595.027447	4571.021333	520.167969	88.466042
-6595.027447	4571.021333	518.918945	-59.595730
-6595.027447	4571.021333	517.669922	-69.589142
-6595.027447	4571.021333	516.419922	-111.776222
-6595.027447	4571.021333	515.169922	-38.990894
-6595.027447	4571.021333	513.919922	17.672459
-6595.027447	4571.021333	512.668945	-77.369041
-6595.027447	4571.021333	511.417969	-68.976204
-6595.027447	4571.021333	510.166992	-127.204407
-6595.027447	4571.021333	508.916016	-72.870743
-6595.027447	4571.021333	507.664063	-163.220764
-6595.027447	4571.021333	506.412109	24.245499
-6595.027447	4571.021333	505.160156	37.197689
-6595.027447	4571.021333	503.907227	-105.894447
-6595.027447	4571.021333	502.655273	-28.680256
-6595.027447	4571.021333	501.402344	57.675987
-6595.027447	4571.021333	500.148438	-9.650764
-6595.027447	4571.021333	498.895508	12.471308
-6595.027447	4571.021333	497.641602	-107.534241
-6595.027447	4571.021333	496.387695	-55.607098
-6595.027447	4571.021333	495.132813	10.045560
-6595.027447	4571.021333	493.878906	-6.793196
-6595.027447	4571.021333	492.624023	10.729302
-6595.027447	4571.021333	491.368164	-90.823021
-6595.027447	4571.021333	490.113281	-153.410858
-6595.027447	4571.021333	488.857422	-3.116672
-6595.027447	4571.021333	487.601563	-35.947769
-6595.027447	4571.021333	486.344727	-64.189148
-6595.027447	4571.021333	485.088867	-122.150772
-6595.027447	4571.021333	483.832031	-31.446482
-6595.027447	4571.021333	482.575195	13.492935
-6595.027447	4571.021333	481.317383	-103.880363
-6595.027447	4571.021333	480.059570	-74.943535
-6595.027447	4571.021333	478.801758	-25.456266
-6595.027447	4571.021333	477.543945	97.107361
-6595.027447	4571.021333	476.285156	0.366348
-6595.027447	4571.021333	475.027344	20.117325
-6595.027447	4571.021333	473.767578	-81.137314
-6595.027447	4571.021333	472.508789	13.933306
-6595.027447	4571.021333	471.249023	-50.773842
-6595.027447	4571.021333	469.989258	-17.358452
-6595.027447	4571.021333	468.729492	-15.895520
-6595.027447	4571.021333	467.469727	58.533562
-6595.027447	4571.021333	466.208984	-1.592769
-6595.027447	4571.021333	464.948242	-29.789446
-6595.027447	4571.021333	463.686523	21.777313
-6595.027447	4571.021333	462.425781	11.795783
-6595.027447	4571.021333	461.164063	49.642403
-6595.027447	4571.021333	459.901367	92.013237
-6595.027447	4571.021333	458.639648	-20.478769
-6595.027447	4571.021333	457.376953	-12.287013
-6595.027447	4571.021333	456.114258	39.128361
-6595.027447	4571.021333	454.851563	136.013474
-6595.027447	4571.021333	453.587891	50.836765
-6595.027447	4571.021333	452.324219	-84.363068
-6595.027447	4571.021333	451.060547	139.764374
-6595.027447	4571.021333	449.796875	-43.186447
-6595.027447	4571.021333	448.532227	12.579683
-6595.027447	4571.021333	447.267578	50.113434
-6595.027447	4571.021333	446.002930	39.888416
-6595.027447	4571.021333	444.737305	47.805988
-6595.027447	4571.021333	443.471680	19.349237
-6595.027447	4571.021333	442.206055	86.230789
-6595.027447	4571.021333	440.940430	89.483475
-6595.027447	4571.021333	439.673828	119.925682
-6595.027447	4571.021333	438.407227	73.162292
-6595.027447	4571.021333	437.140625	55.864063
-6595.027447	4571.021333	435.873047	197.288910
-6595.027447	4571.021333	434.605469	198.008331
-6595.027447	4571.021333	433.337891	137.460831
-6595.027447	4571.021333	432.070313	74.614624
-6595.027447	4571.021333	430.801758	138.635727
-6595.027447	4571.021333	429.533203	-5.874854
-6595.027447	4571.021333	428.264648	162.200668
-6595.027447	4571.021333	426.996094	65.165985
-6595.027447	4571.021333	425.726563	15.643973
-6595.027447	4571.021333	424.457031	47.557163
-6595.027447	4571.021333	423.186523	72.581764
-6595.027447	4571.021333	421.916992	142.765915
-6595.027447	4571.021333	420.646484	92.928879
-6595.027447	4571.021333	419.375977	92.776146
-6595.027447	4571.021333	418.104492	81.215546
-6595.027447	4571.021333	416.833008	-5.048555
-6595.027447	4571.021333	415.561523	75.874779
-6595.027447	4571.021333	414.290039	75.298210
-6595.027447	4571.021333	413.017578	70.082314
-6595.027447	4571.021333	411.746094	94.112251
-6595.027447	4571.021333	410.472656	70.572578
-6595.027447	4571.021333	409.200195	110.131088
-6595.027447	4571.021333	407.926758	70.523399
-6595.027447	4571.021333	406.653320	80.437744
-6595.027447	4571.021333	405.379883	137.578796
-6595.027447	4571.021333	404.105469	81.742310
-6595.027447	4571.021333	402.831055	7.723750
-6595.027447	4571.021333	401.556641	109.446045
-6595.027447	4571.021333	400.282227	98.229408
-6595.027447	4571.021333	399.006836	111.622734
-6595.027447	4571.021333	397.731445	5.390062
-6595.027447	4571.021333	396.456055	-76.211929
-6595.027447	4571.021333	395.179688	123.562881
-6595.027447	4571.021333	393.903320	-1.238393
-6595.027447	4571.021333	392.626953	213.760941
-6595.027447	4571.021333	391.350586	68.287476
-6595.027447	4571.021333	390.073242	91.419876
-6595.027447	4571.021333	388.795898	24.298819
-6595.027447	4571.021333	387.518555	37.934952
-6595.027447	4571.021333	386.240234	134.509216
-6595.027447	4571.021333	384.961914	75.623627
-6595.027447	4571.021333	383.683594	-5.996495
-6595.027447	4571.021333	382.405273	17.762136
-6595.027447	4571.021333	381.125977	-8.230870
-6595.027447	4571.021333	379.846680	62.079033
-6595.027447	4571.021333	378.567383	-40.907978
-6595.027447	4571.021333	377.287109	-38.646500
-6595.027447	4571.021333	376.006836	46.340332
-6595.027447	4571.021333	374.726563	274.591583
-6595.027447	4571.021333	373.446289	31.119267
-6595.027447	4571.021333	372.165039	-6.218910
-6595.027447	4571.021333	370.883789	21.122774
-6595.027447	4571.021333	369.602539	-28.195580
-6595.027447	4571.021333	368.320313	20.740150
-6595.027447	4571.021333	367.039063	-177.341248
-6595.027447	4571.021333	365.755859	38.822186
-6595.027447	4571.021333	364.473633	68.474709
-6595.027447	4571.021333	363.190430	-56.933426
-6595.027447	4571.021333	361.907227	85.999100
-6595.027447	4571.021333	360.624023	132.091492
-6595.027447	4571.021333	359.340820	103.779350
-6595.027447	4571.021333	358.056641	70.469109
-6595.027447	4571.021333	356.772461	5.307881
-6595.027447	4571.021333	355.487305	-29.068428
-6595.027447	4571.021333	354.202148	-115.444725
-6595.027447	4571.021333	352.916992	-95.025253
-6595.027447	4571.021333	351.631836	14.215907
-6595.027447	4571.021333	350.346680	-4.620983
-6595.027447	4571.021333	349.060547	20.596981
-6595.027447	4571.021333	347.774414	-176.049438
-6595.027447	4571.021333	346.487305	-80.662994
-6595.027447	4571.021333	345.200195	-37.375114
-6595.027447	4571.021333	343.913086	-124.321762
-6595.027447	4571.021333	342.625977	-17.740347
-6595.027447	4571.021333	341.338867	-5.691885
-6595.027447	4571.021333	340.050781	-3.360919
-6595.027447	4571.021333	338.762695	-111.134567
-6595.027447	4571.021333	337.473633	-150.546585
-6595.027447	4571.021333	336.184570	45.603123
-6595.027447	4571.021333	334.895508	-84.687508
-6595.027447	4571.021333	333.606445	29.392525
-6595.027447	4571.021333	332.317383	-124.893570
-6595.027447	4571.021333	331.027344	-46.114281
-6595.027447	4571.021333	329.736328	-15.116323
-6595.027447	4571.021333	328.446289	37.194809
-6595.027447	4571.021333	327.155273	-229.931854
-6595.027447	4571.021333	325.864258	69.686867
-6595.027447	4571.021333	324.573242	-65.856049
-6595.027447	4571.021333	323.281250	73.473869
-6595.027447	4571.021333	321.989258	-21.937248
-6595.027447	4571.021333	320.697266	12.793072
-6595.027447	4571.021333	319.405273	-22.575264
-6595.027447	4571.021333	318.112305	34.233864
-6595.027447	4571.021333	316.819336	-63.553818
-6595.027447	4571.021333	315.526367	37.460144
-6595.027447	4571.021333	314.232422	6.048934
-6595.027447	4571.021333	312.938477	108.846527
-6595.027447	4571.021333	311.644531	-5.139919
-6595.027447	4571.021333	310.349609	-76.069153
-6595.027447	4571.021333	309.054688	69.174408
-6595.027447	4571.021333	307.759766	62.018066
-6595.027447	4571.021333	306.464844	9.030130
-6595.027447	4571.021333	305.168945	249.564713
-6595.027447	4571.021333	303.873047	175.753815
-6595.027447	4571.021333	302.577148	302.188324
-6595.027447	4571.021333	301.281250	220.802277
-6595.027447	4571.021333	299.984375	326.159821
