#X		#Y		#Wave		#Intensity
-7439.871277	4224.209167	1999.946289	-6.579652
-7439.871277	4224.209167	1998.981445	4.606532
-7439.871277	4224.209167	1998.017578	8.423324
-7439.871277	4224.209167	1997.052734	66.661812
-7439.871277	4224.209167	1996.088867	47.986889
-7439.871277	4224.209167	1995.124023	68.864914
-7439.871277	4224.209167	1994.159180	52.503624
-7439.871277	4224.209167	1993.193359	-1.078207
-7439.871277	4224.209167	1992.228516	-10.145998
-7439.871277	4224.209167	1991.262695	-133.151306
-7439.871277	4224.209167	1990.296875	-134.909805
-7439.871277	4224.209167	1989.331055	162.675507
-7439.871277	4224.209167	1988.365234	-235.099274
-7439.871277	4224.209167	1987.398438	49.900997
-7439.871277	4224.209167	1986.432617	-258.788940
-7439.871277	4224.209167	1985.465820	132.324493
-7439.871277	4224.209167	1984.499023	16.452938
-7439.871277	4224.209167	1983.532227	-131.554123
-7439.871277	4224.209167	1982.565430	73.834396
-7439.871277	4224.209167	1981.597656	130.854507
-7439.871277	4224.209167	1980.629883	-27.102524
-7439.871277	4224.209167	1979.662109	113.814499
-7439.871277	4224.209167	1978.694336	-2.171225
-7439.871277	4224.209167	1977.726563	220.098007
-7439.871277	4224.209167	1976.758789	341.047424
-7439.871277	4224.209167	1975.790039	136.141968
-7439.871277	4224.209167	1974.821289	222.459305
-7439.871277	4224.209167	1973.852539	182.900040
-7439.871277	4224.209167	1972.883789	-132.928192
-7439.871277	4224.209167	1971.915039	125.962013
-7439.871277	4224.209167	1970.945313	177.614365
-7439.871277	4224.209167	1969.975586	-19.758915
-7439.871277	4224.209167	1969.005859	-42.069977
-7439.871277	4224.209167	1968.036133	162.336365
-7439.871277	4224.209167	1967.066406	78.382805
-7439.871277	4224.209167	1966.096680	-30.181822
-7439.871277	4224.209167	1965.125977	122.359650
-7439.871277	4224.209167	1964.155273	16.275824
-7439.871277	4224.209167	1963.184570	85.035103
-7439.871277	4224.209167	1962.213867	-104.699837
-7439.871277	4224.209167	1961.242188	8.352452
-7439.871277	4224.209167	1960.271484	155.819107
-7439.871277	4224.209167	1959.299805	-70.724915
-7439.871277	4224.209167	1958.328125	-29.064053
-7439.871277	4224.209167	1957.356445	-2.168661
-7439.871277	4224.209167	1956.384766	152.584595
-7439.871277	4224.209167	1955.412109	127.821663
-7439.871277	4224.209167	1954.439453	-81.268471
-7439.871277	4224.209167	1953.467773	-76.462715
-7439.871277	4224.209167	1952.495117	193.707260
-7439.871277	4224.209167	1951.521484	134.604843
-7439.871277	4224.209167	1950.548828	-150.418839
-7439.871277	4224.209167	1949.575195	259.625000
-7439.871277	4224.209167	1948.601563	77.829330
-7439.871277	4224.209167	1947.627930	126.864006
-7439.871277	4224.209167	1946.654297	325.610718
-7439.871277	4224.209167	1945.680664	92.427719
-7439.871277	4224.209167	1944.706055	-84.226295
-7439.871277	4224.209167	1943.732422	-30.213675
-7439.871277	4224.209167	1942.757813	43.414379
-7439.871277	4224.209167	1941.783203	134.200623
-7439.871277	4224.209167	1940.807617	202.906433
-7439.871277	4224.209167	1939.833008	77.978699
-7439.871277	4224.209167	1938.857422	38.888752
-7439.871277	4224.209167	1937.881836	-7.512310
-7439.871277	4224.209167	1936.906250	-58.771835
-7439.871277	4224.209167	1935.930664	218.216110
-7439.871277	4224.209167	1934.955078	149.843567
-7439.871277	4224.209167	1933.978516	-40.899620
-7439.871277	4224.209167	1933.001953	-136.077652
-7439.871277	4224.209167	1932.025391	204.452377
-7439.871277	4224.209167	1931.048828	111.765984
-7439.871277	4224.209167	1930.072266	41.160324
-7439.871277	4224.209167	1929.094727	73.339127
-7439.871277	4224.209167	1928.118164	7.714072
-7439.871277	4224.209167	1927.140625	96.183533
-7439.871277	4224.209167	1926.163086	113.750275
-7439.871277	4224.209167	1925.184570	-147.308716
-7439.871277	4224.209167	1924.207031	-2.567479
-7439.871277	4224.209167	1923.228516	-38.662636
-7439.871277	4224.209167	1922.250000	-91.815292
-7439.871277	4224.209167	1921.271484	18.723627
-7439.871277	4224.209167	1920.292969	-127.157188
-7439.871277	4224.209167	1919.314453	-75.191132
-7439.871277	4224.209167	1918.334961	-23.219343
-7439.871277	4224.209167	1917.355469	67.812202
-7439.871277	4224.209167	1916.375977	-11.972551
-7439.871277	4224.209167	1915.396484	115.676315
-7439.871277	4224.209167	1914.416992	-122.579201
-7439.871277	4224.209167	1913.436523	68.504776
-7439.871277	4224.209167	1912.457031	57.168621
-7439.871277	4224.209167	1911.476563	101.932442
-7439.871277	4224.209167	1910.496094	-50.723351
-7439.871277	4224.209167	1909.515625	-103.378067
-7439.871277	4224.209167	1908.534180	275.272766
-7439.871277	4224.209167	1907.552734	-62.390186
-7439.871277	4224.209167	1906.572266	-95.444420
-7439.871277	4224.209167	1905.590820	210.021042
-7439.871277	4224.209167	1904.608398	-122.493027
-7439.871277	4224.209167	1903.626953	131.798935
-7439.871277	4224.209167	1902.644531	106.133255
-7439.871277	4224.209167	1901.663086	263.007263
-7439.871277	4224.209167	1900.680664	298.200317
-7439.871277	4224.209167	1899.698242	-9.565524
-7439.871277	4224.209167	1898.714844	47.600319
-7439.871277	4224.209167	1897.732422	9.942944
-7439.871277	4224.209167	1896.749023	-13.092119
-7439.871277	4224.209167	1895.765625	24.669203
-7439.871277	4224.209167	1894.782227	193.668854
-7439.871277	4224.209167	1893.798828	-106.302605
-7439.871277	4224.209167	1892.814453	-170.506912
-7439.871277	4224.209167	1891.831055	-122.938568
-7439.871277	4224.209167	1890.846680	189.318863
-7439.871277	4224.209167	1889.862305	168.862091
-7439.871277	4224.209167	1888.877930	46.481628
-7439.871277	4224.209167	1887.892578	162.005646
-7439.871277	4224.209167	1886.908203	73.683479
-7439.871277	4224.209167	1885.922852	-58.259651
-7439.871277	4224.209167	1884.937500	42.722996
-7439.871277	4224.209167	1883.952148	-110.954094
-7439.871277	4224.209167	1882.965820	-140.900192
-7439.871277	4224.209167	1881.980469	112.820297
-7439.871277	4224.209167	1880.994141	90.147621
-7439.871277	4224.209167	1880.007813	157.162552
-7439.871277	4224.209167	1879.021484	-170.761505
-7439.871277	4224.209167	1878.035156	34.385616
-7439.871277	4224.209167	1877.047852	74.772034
-7439.871277	4224.209167	1876.061523	44.935658
-7439.871277	4224.209167	1875.074219	-74.458527
-7439.871277	4224.209167	1874.086914	19.217974
-7439.871277	4224.209167	1873.098633	219.354019
-7439.871277	4224.209167	1872.111328	83.089928
-7439.871277	4224.209167	1871.123047	46.074165
-7439.871277	4224.209167	1870.135742	-237.632111
-7439.871277	4224.209167	1869.147461	-136.710480
-7439.871277	4224.209167	1868.158203	70.566010
-7439.871277	4224.209167	1867.169922	2.188082
-7439.871277	4224.209167	1866.180664	35.353153
-7439.871277	4224.209167	1865.192383	-32.979321
-7439.871277	4224.209167	1864.203125	-81.954689
-7439.871277	4224.209167	1863.213867	-89.842087
-7439.871277	4224.209167	1862.223633	-15.608068
-7439.871277	4224.209167	1861.234375	-57.302017
-7439.871277	4224.209167	1860.244141	-41.037994
-7439.871277	4224.209167	1859.253906	71.774200
-7439.871277	4224.209167	1858.263672	-66.443268
-7439.871277	4224.209167	1857.273438	19.792328
-7439.871277	4224.209167	1856.282227	-45.991402
-7439.871277	4224.209167	1855.291992	-3.207190
-7439.871277	4224.209167	1854.300781	95.021179
-7439.871277	4224.209167	1853.309570	-72.008110
-7439.871277	4224.209167	1852.317383	-53.361210
-7439.871277	4224.209167	1851.326172	281.012054
-7439.871277	4224.209167	1850.333984	48.966381
-7439.871277	4224.209167	1849.342773	171.170120
-7439.871277	4224.209167	1848.350586	25.940899
-7439.871277	4224.209167	1847.357422	-109.608711
-7439.871277	4224.209167	1846.365234	161.826370
-7439.871277	4224.209167	1845.372070	158.698486
-7439.871277	4224.209167	1844.379883	203.707291
-7439.871277	4224.209167	1843.386719	10.437908
-7439.871277	4224.209167	1842.393555	38.593842
-7439.871277	4224.209167	1841.399414	47.480980
-7439.871277	4224.209167	1840.406250	179.022644
-7439.871277	4224.209167	1839.412109	159.001205
-7439.871277	4224.209167	1838.417969	179.848694
-7439.871277	4224.209167	1837.423828	171.830078
-7439.871277	4224.209167	1836.429688	101.312897
-7439.871277	4224.209167	1835.434570	114.907661
-7439.871277	4224.209167	1834.440430	279.842529
-7439.871277	4224.209167	1833.445313	-117.378563
-7439.871277	4224.209167	1832.450195	-34.149666
-7439.871277	4224.209167	1831.454102	171.485428
-7439.871277	4224.209167	1830.458984	151.365341
-7439.871277	4224.209167	1829.462891	227.240967
-7439.871277	4224.209167	1828.466797	151.884384
-7439.871277	4224.209167	1827.470703	218.096695
-7439.871277	4224.209167	1826.474609	70.765984
-7439.871277	4224.209167	1825.478516	285.629913
-7439.871277	4224.209167	1824.481445	104.726646
-7439.871277	4224.209167	1823.484375	197.184769
-7439.871277	4224.209167	1822.487305	167.336685
-7439.871277	4224.209167	1821.490234	44.008965
-7439.871277	4224.209167	1820.493164	102.812363
-7439.871277	4224.209167	1819.495117	278.954865
-7439.871277	4224.209167	1818.498047	131.652557
-7439.871277	4224.209167	1817.500000	99.326859
-7439.871277	4224.209167	1816.500977	-71.887115
-7439.871277	4224.209167	1815.502930	29.844049
-7439.871277	4224.209167	1814.504883	62.100403
-7439.871277	4224.209167	1813.505859	-54.051769
-7439.871277	4224.209167	1812.506836	35.571110
-7439.871277	4224.209167	1811.507813	120.346443
-7439.871277	4224.209167	1810.508789	147.662399
-7439.871277	4224.209167	1809.508789	21.898645
-7439.871277	4224.209167	1808.508789	39.596321
-7439.871277	4224.209167	1807.508789	-47.914997
-7439.871277	4224.209167	1806.508789	-82.847710
-7439.871277	4224.209167	1805.508789	214.323105
-7439.871277	4224.209167	1804.508789	88.511009
-7439.871277	4224.209167	1803.507813	46.306526
-7439.871277	4224.209167	1802.506836	-127.255859
-7439.871277	4224.209167	1801.505859	186.277512
-7439.871277	4224.209167	1800.504883	175.010681
-7439.871277	4224.209167	1799.502930	-5.743295
-7439.871277	4224.209167	1798.501953	157.153778
-7439.871277	4224.209167	1797.500000	50.360653
-7439.871277	4224.209167	1796.498047	-49.273487
-7439.871277	4224.209167	1795.496094	282.753876
-7439.871277	4224.209167	1794.493164	342.792816
-7439.871277	4224.209167	1793.491211	107.165436
-7439.871277	4224.209167	1792.488281	102.786087
-7439.871277	4224.209167	1791.485352	177.010986
-7439.871277	4224.209167	1790.482422	163.013611
-7439.871277	4224.209167	1789.478516	-98.765320
-7439.871277	4224.209167	1788.475586	84.897125
-7439.871277	4224.209167	1787.471680	-38.733475
-7439.871277	4224.209167	1786.467773	-7.605369
-7439.871277	4224.209167	1785.463867	-47.939575
-7439.871277	4224.209167	1784.459961	59.254810
-7439.871277	4224.209167	1783.455078	30.734751
-7439.871277	4224.209167	1782.450195	80.691833
-7439.871277	4224.209167	1781.445313	111.560341
-7439.871277	4224.209167	1780.440430	304.085114
-7439.871277	4224.209167	1779.435547	99.428978
-7439.871277	4224.209167	1778.429688	113.505989
-7439.871277	4224.209167	1777.424805	186.956955
-7439.871277	4224.209167	1776.418945	67.854378
-7439.871277	4224.209167	1775.413086	17.652838
-7439.871277	4224.209167	1774.406250	95.693031
-7439.871277	4224.209167	1773.400391	199.789001
-7439.871277	4224.209167	1772.393555	-73.745872
-7439.871277	4224.209167	1771.386719	-45.718491
-7439.871277	4224.209167	1770.379883	-39.108536
-7439.871277	4224.209167	1769.373047	166.796707
-7439.871277	4224.209167	1768.365234	154.287949
-7439.871277	4224.209167	1767.358398	87.183632
-7439.871277	4224.209167	1766.350586	126.785042
-7439.871277	4224.209167	1765.342773	104.670303
-7439.871277	4224.209167	1764.334961	120.453560
-7439.871277	4224.209167	1763.326172	178.848190
-7439.871277	4224.209167	1762.318359	35.731731
-7439.871277	4224.209167	1761.309570	186.439240
-7439.871277	4224.209167	1760.300781	-103.603226
-7439.871277	4224.209167	1759.291016	177.251175
-7439.871277	4224.209167	1758.282227	-164.871597
-7439.871277	4224.209167	1757.272461	61.337833
-7439.871277	4224.209167	1756.262695	178.519592
-7439.871277	4224.209167	1755.252930	-4.975794
-7439.871277	4224.209167	1754.243164	-79.593658
-7439.871277	4224.209167	1753.233398	53.970654
-7439.871277	4224.209167	1752.222656	17.117680
-7439.871277	4224.209167	1751.211914	20.437983
-7439.871277	4224.209167	1750.201172	-96.882889
-7439.871277	4224.209167	1749.190430	-17.983585
-7439.871277	4224.209167	1748.179688	34.838051
-7439.871277	4224.209167	1747.167969	113.582001
-7439.871277	4224.209167	1746.156250	-29.849392
-7439.871277	4224.209167	1745.144531	-26.809587
-7439.871277	4224.209167	1744.132813	186.387009
-7439.871277	4224.209167	1743.121094	-68.102295
-7439.871277	4224.209167	1742.108398	-48.676132
-7439.871277	4224.209167	1741.095703	-192.179947
-7439.871277	4224.209167	1740.083008	-24.146849
-7439.871277	4224.209167	1739.070313	49.391041
-7439.871277	4224.209167	1738.057617	96.904533
-7439.871277	4224.209167	1737.043945	217.466522
-7439.871277	4224.209167	1736.030273	-147.864853
-7439.871277	4224.209167	1735.016602	-225.449814
-7439.871277	4224.209167	1734.002930	-109.748177
-7439.871277	4224.209167	1732.989258	-130.836929
-7439.871277	4224.209167	1731.974609	-168.464615
-7439.871277	4224.209167	1730.959961	-130.732056
-7439.871277	4224.209167	1729.945313	-78.925194
-7439.871277	4224.209167	1728.930664	-48.379768
-7439.871277	4224.209167	1727.916016	17.428829
-7439.871277	4224.209167	1726.900391	-112.238350
-7439.871277	4224.209167	1725.885742	-60.654766
-7439.871277	4224.209167	1724.870117	195.595001
-7439.871277	4224.209167	1723.853516	94.061867
-7439.871277	4224.209167	1722.837891	4.292919
-7439.871277	4224.209167	1721.822266	-139.581680
-7439.871277	4224.209167	1720.805664	-27.136986
-7439.871277	4224.209167	1719.789063	-48.788708
-7439.871277	4224.209167	1718.772461	101.118713
-7439.871277	4224.209167	1717.754883	-237.913712
-7439.871277	4224.209167	1716.738281	-1.174307
-7439.871277	4224.209167	1715.720703	59.230267
-7439.871277	4224.209167	1714.703125	-166.983627
-7439.871277	4224.209167	1713.685547	247.948013
-7439.871277	4224.209167	1712.667969	19.352644
-7439.871277	4224.209167	1711.649414	103.008461
-7439.871277	4224.209167	1710.630859	174.855652
-7439.871277	4224.209167	1709.612305	-6.792936
-7439.871277	4224.209167	1708.593750	76.697815
-7439.871277	4224.209167	1707.575195	19.377092
-7439.871277	4224.209167	1706.555664	-7.481925
-7439.871277	4224.209167	1705.536133	319.690063
-7439.871277	4224.209167	1704.516602	285.672760
-7439.871277	4224.209167	1703.497070	115.687218
-7439.871277	4224.209167	1702.477539	163.664536
-7439.871277	4224.209167	1701.457031	265.466614
-7439.871277	4224.209167	1700.437500	193.855225
-7439.871277	4224.209167	1699.416992	288.511749
-7439.871277	4224.209167	1698.395508	130.193344
-7439.871277	4224.209167	1697.375000	107.695213
-7439.871277	4224.209167	1696.354492	213.908508
-7439.871277	4224.209167	1695.333008	488.536804
-7439.871277	4224.209167	1694.311523	220.188919
-7439.871277	4224.209167	1693.290039	253.686584
-7439.871277	4224.209167	1692.267578	191.234283
-7439.871277	4224.209167	1691.246094	484.226227
-7439.871277	4224.209167	1690.223633	342.194885
-7439.871277	4224.209167	1689.201172	326.413300
-7439.871277	4224.209167	1688.178711	415.775543
-7439.871277	4224.209167	1687.155273	329.813141
-7439.871277	4224.209167	1686.132813	157.421539
-7439.871277	4224.209167	1685.109375	183.597870
-7439.871277	4224.209167	1684.085938	57.937599
-7439.871277	4224.209167	1683.062500	268.516449
-7439.871277	4224.209167	1682.039063	301.570313
-7439.871277	4224.209167	1681.014648	161.860077
-7439.871277	4224.209167	1679.990234	87.513580
-7439.871277	4224.209167	1678.965820	78.495247
-7439.871277	4224.209167	1677.941406	309.711884
-7439.871277	4224.209167	1676.916992	223.637680
-7439.871277	4224.209167	1675.891602	352.081329
-7439.871277	4224.209167	1674.866211	228.672729
-7439.871277	4224.209167	1673.840820	440.924194
-7439.871277	4224.209167	1672.815430	492.274780
-7439.871277	4224.209167	1671.790039	657.747559
-7439.871277	4224.209167	1670.763672	513.304382
-7439.871277	4224.209167	1669.737305	569.190674
-7439.871277	4224.209167	1668.710938	457.376617
-7439.871277	4224.209167	1667.684570	424.739868
-7439.871277	4224.209167	1666.658203	575.981201
-7439.871277	4224.209167	1665.630859	359.433594
-7439.871277	4224.209167	1664.603516	578.057312
-7439.871277	4224.209167	1663.576172	515.092163
-7439.871277	4224.209167	1662.548828	398.637482
-7439.871277	4224.209167	1661.520508	663.571106
-7439.871277	4224.209167	1660.493164	654.047424
-7439.871277	4224.209167	1659.464844	765.377136
-7439.871277	4224.209167	1658.436523	632.619324
-7439.871277	4224.209167	1657.408203	664.875122
-7439.871277	4224.209167	1656.378906	569.321289
-7439.871277	4224.209167	1655.350586	801.303589
-7439.871277	4224.209167	1654.321289	573.362366
-7439.871277	4224.209167	1653.291992	703.058472
-7439.871277	4224.209167	1652.261719	549.475830
-7439.871277	4224.209167	1651.232422	597.870544
-7439.871277	4224.209167	1650.202148	609.099243
-7439.871277	4224.209167	1649.171875	986.880127
-7439.871277	4224.209167	1648.141602	742.856445
-7439.871277	4224.209167	1647.111328	1046.234009
-7439.871277	4224.209167	1646.080078	950.664063
-7439.871277	4224.209167	1645.049805	975.680115
-7439.871277	4224.209167	1644.018555	1230.132813
-7439.871277	4224.209167	1642.987305	1183.226929
-7439.871277	4224.209167	1641.955078	1247.536377
-7439.871277	4224.209167	1640.923828	1246.963989
-7439.871277	4224.209167	1639.891602	1257.960083
-7439.871277	4224.209167	1638.859375	1396.303345
-7439.871277	4224.209167	1637.827148	1099.352051
-7439.871277	4224.209167	1636.794922	1239.982910
-7439.871277	4224.209167	1635.761719	1223.184937
-7439.871277	4224.209167	1634.729492	1345.226318
-7439.871277	4224.209167	1633.696289	1171.109863
-7439.871277	4224.209167	1632.662109	1212.147949
-7439.871277	4224.209167	1631.628906	1544.545044
-7439.871277	4224.209167	1630.594727	1287.258301
-7439.871277	4224.209167	1629.561523	1612.583008
-7439.871277	4224.209167	1628.527344	1593.428467
-7439.871277	4224.209167	1627.493164	1657.468994
-7439.871277	4224.209167	1626.458008	1758.444824
-7439.871277	4224.209167	1625.423828	1840.917969
-7439.871277	4224.209167	1624.388672	1828.677368
-7439.871277	4224.209167	1623.353516	2012.699463
-7439.871277	4224.209167	1622.318359	1965.822632
-7439.871277	4224.209167	1621.282227	2041.283447
-7439.871277	4224.209167	1620.247070	1941.365234
-7439.871277	4224.209167	1619.210938	1947.612183
-7439.871277	4224.209167	1618.174805	2163.766113
-7439.871277	4224.209167	1617.137695	2146.920654
-7439.871277	4224.209167	1616.101563	2199.275391
-7439.871277	4224.209167	1615.064453	2067.195068
-7439.871277	4224.209167	1614.027344	2290.118164
-7439.871277	4224.209167	1612.990234	2536.012695
-7439.871277	4224.209167	1611.953125	2367.129150
-7439.871277	4224.209167	1610.916016	2619.854980
-7439.871277	4224.209167	1609.877930	2471.774658
-7439.871277	4224.209167	1608.839844	2950.059082
-7439.871277	4224.209167	1607.801758	2732.945557
-7439.871277	4224.209167	1606.763672	2582.684570
-7439.871277	4224.209167	1605.724609	2745.456543
-7439.871277	4224.209167	1604.685547	2728.729004
-7439.871277	4224.209167	1603.646484	2599.315674
-7439.871277	4224.209167	1602.607422	2697.658447
-7439.871277	4224.209167	1601.568359	2598.240479
-7439.871277	4224.209167	1600.528320	2855.214600
-7439.871277	4224.209167	1599.489258	2939.734619
-7439.871277	4224.209167	1598.449219	2969.085693
-7439.871277	4224.209167	1597.408203	2922.622314
-7439.871277	4224.209167	1596.368164	2952.019531
-7439.871277	4224.209167	1595.327148	2705.822266
-7439.871277	4224.209167	1594.287109	2889.156982
-7439.871277	4224.209167	1593.246094	2822.197998
-7439.871277	4224.209167	1592.204102	2876.943848
-7439.871277	4224.209167	1591.163086	2805.487549
-7439.871277	4224.209167	1590.121094	2722.608887
-7439.871277	4224.209167	1589.079102	2795.791016
-7439.871277	4224.209167	1588.037109	2758.884521
-7439.871277	4224.209167	1586.995117	2818.339111
-7439.871277	4224.209167	1585.953125	2584.344971
-7439.871277	4224.209167	1584.910156	2423.821045
-7439.871277	4224.209167	1583.867188	2542.992676
-7439.871277	4224.209167	1582.824219	2609.454102
-7439.871277	4224.209167	1581.781250	2281.897705
-7439.871277	4224.209167	1580.737305	2550.011963
-7439.871277	4224.209167	1579.693359	2348.615479
-7439.871277	4224.209167	1578.649414	2474.740479
-7439.871277	4224.209167	1577.605469	2307.856201
-7439.871277	4224.209167	1576.561523	2239.489014
-7439.871277	4224.209167	1575.516602	2253.559814
-7439.871277	4224.209167	1574.472656	2160.150635
-7439.871277	4224.209167	1573.427734	1966.177002
-7439.871277	4224.209167	1572.381836	2382.899658
-7439.871277	4224.209167	1571.336914	2163.898193
-7439.871277	4224.209167	1570.291016	1942.734985
-7439.871277	4224.209167	1569.246094	1922.835205
-7439.871277	4224.209167	1568.200195	1811.581909
-7439.871277	4224.209167	1567.153320	1935.728027
-7439.871277	4224.209167	1566.107422	1797.205811
-7439.871277	4224.209167	1565.060547	1839.191895
-7439.871277	4224.209167	1564.013672	1725.951416
-7439.871277	4224.209167	1562.966797	1628.787964
-7439.871277	4224.209167	1561.919922	1686.912964
-7439.871277	4224.209167	1560.872070	1240.761230
-7439.871277	4224.209167	1559.825195	1440.495605
-7439.871277	4224.209167	1558.777344	1439.472290
-7439.871277	4224.209167	1557.729492	1602.703003
-7439.871277	4224.209167	1556.680664	1387.422607
-7439.871277	4224.209167	1555.632813	1167.728149
-7439.871277	4224.209167	1554.583984	1173.813843
-7439.871277	4224.209167	1553.535156	1211.857666
-7439.871277	4224.209167	1552.486328	1630.423584
-7439.871277	4224.209167	1551.436523	1094.450562
-7439.871277	4224.209167	1550.387695	1262.477783
-7439.871277	4224.209167	1549.337891	1517.018188
-7439.871277	4224.209167	1548.288086	1414.104858
-7439.871277	4224.209167	1547.238281	1422.821289
-7439.871277	4224.209167	1546.187500	1085.695679
-7439.871277	4224.209167	1545.136719	1112.795044
-7439.871277	4224.209167	1544.086914	1274.160645
-7439.871277	4224.209167	1543.035156	1417.323242
-7439.871277	4224.209167	1541.984375	1123.923096
-7439.871277	4224.209167	1540.933594	1198.993530
-7439.871277	4224.209167	1539.881836	1146.808838
-7439.871277	4224.209167	1538.830078	1460.584229
-7439.871277	4224.209167	1537.778320	1174.483276
-7439.871277	4224.209167	1536.725586	1038.483887
-7439.871277	4224.209167	1535.673828	770.884949
-7439.871277	4224.209167	1534.621094	664.675903
-7439.871277	4224.209167	1533.568359	722.036255
-7439.871277	4224.209167	1532.515625	711.350281
-7439.871277	4224.209167	1531.461914	621.308105
-7439.871277	4224.209167	1530.409180	592.637695
-7439.871277	4224.209167	1529.355469	657.053711
-7439.871277	4224.209167	1528.301758	571.828979
-7439.871277	4224.209167	1527.247070	454.959595
-7439.871277	4224.209167	1526.193359	592.132874
-7439.871277	4224.209167	1525.138672	643.187927
-7439.871277	4224.209167	1524.083984	583.253906
-7439.871277	4224.209167	1523.029297	333.094940
-7439.871277	4224.209167	1521.974609	69.519150
-7439.871277	4224.209167	1520.918945	361.014130
-7439.871277	4224.209167	1519.863281	416.970337
-7439.871277	4224.209167	1518.807617	303.185089
-7439.871277	4224.209167	1517.751953	345.706757
-7439.871277	4224.209167	1516.696289	558.021057
-7439.871277	4224.209167	1515.639648	363.052612
-7439.871277	4224.209167	1514.583008	487.210938
-7439.871277	4224.209167	1513.526367	396.534515
-7439.871277	4224.209167	1512.469727	360.246460
-7439.871277	4224.209167	1511.412109	452.918060
-7439.871277	4224.209167	1510.355469	452.962830
-7439.871277	4224.209167	1509.297852	471.166473
-7439.871277	4224.209167	1508.240234	507.521088
-7439.871277	4224.209167	1507.181641	322.555237
-7439.871277	4224.209167	1506.124023	316.178864
-7439.871277	4224.209167	1505.065430	233.109955
-7439.871277	4224.209167	1504.006836	642.338257
-7439.871277	4224.209167	1502.948242	148.585876
-7439.871277	4224.209167	1501.888672	221.572159
-7439.871277	4224.209167	1500.830078	445.794098
-7439.871277	4224.209167	1499.770508	257.178467
-7439.871277	4224.209167	1498.710938	-80.135971
-7439.871277	4224.209167	1497.650391	65.343887
-7439.871277	4224.209167	1496.590820	134.199326
-7439.871277	4224.209167	1495.530273	34.054989
-7439.871277	4224.209167	1494.469727	-124.557159
-7439.871277	4224.209167	1493.409180	106.791916
-7439.871277	4224.209167	1492.348633	83.574196
-7439.871277	4224.209167	1491.287109	195.592865
-7439.871277	4224.209167	1490.225586	37.431252
-7439.871277	4224.209167	1489.164063	-152.096848
-7439.871277	4224.209167	1488.102539	178.520554
-7439.871277	4224.209167	1487.041016	99.497604
-7439.871277	4224.209167	1485.978516	40.847832
-7439.871277	4224.209167	1484.916016	-26.671068
-7439.871277	4224.209167	1483.853516	13.864017
-7439.871277	4224.209167	1482.791016	-136.650177
-7439.871277	4224.209167	1481.727539	-102.641228
-7439.871277	4224.209167	1480.664063	-160.721909
-7439.871277	4224.209167	1479.600586	-38.891018
-7439.871277	4224.209167	1478.537109	11.085060
-7439.871277	4224.209167	1477.473633	-224.121582
-7439.871277	4224.209167	1476.409180	214.589249
-7439.871277	4224.209167	1475.344727	-81.030479
-7439.871277	4224.209167	1474.280273	128.626831
-7439.871277	4224.209167	1473.215820	48.874878
-7439.871277	4224.209167	1472.151367	81.493118
-7439.871277	4224.209167	1471.085938	102.759872
-7439.871277	4224.209167	1470.020508	276.880768
-7439.871277	4224.209167	1468.955078	251.382278
-7439.871277	4224.209167	1467.888672	156.362350
-7439.871277	4224.209167	1466.823242	413.275116
-7439.871277	4224.209167	1465.756836	347.956940
-7439.871277	4224.209167	1464.690430	436.802368
-7439.871277	4224.209167	1463.624023	304.203156
-7439.871277	4224.209167	1462.556641	559.114075
-7439.871277	4224.209167	1461.490234	435.883789
-7439.871277	4224.209167	1460.422852	422.640594
-7439.871277	4224.209167	1459.355469	387.118378
-7439.871277	4224.209167	1458.287109	415.685333
-7439.871277	4224.209167	1457.219727	362.073242
-7439.871277	4224.209167	1456.151367	627.991089
-7439.871277	4224.209167	1455.083008	769.020020
-7439.871277	4224.209167	1454.014648	528.424805
-7439.871277	4224.209167	1452.945313	469.000824
-7439.871277	4224.209167	1451.876953	550.478821
-7439.871277	4224.209167	1450.807617	631.524780
-7439.871277	4224.209167	1449.738281	629.604187
-7439.871277	4224.209167	1448.668945	803.812683
-7439.871277	4224.209167	1447.598633	561.905090
-7439.871277	4224.209167	1446.528320	697.370972
-7439.871277	4224.209167	1445.458008	514.840210
-7439.871277	4224.209167	1444.387695	754.019897
-7439.871277	4224.209167	1443.317383	708.577881
-7439.871277	4224.209167	1442.246094	893.706909
-7439.871277	4224.209167	1441.174805	558.028870
-7439.871277	4224.209167	1440.103516	557.569153
-7439.871277	4224.209167	1439.032227	578.223145
-7439.871277	4224.209167	1437.960938	455.023102
-7439.871277	4224.209167	1436.888672	743.944275
-7439.871277	4224.209167	1435.816406	1041.878662
-7439.871277	4224.209167	1434.744141	896.208069
-7439.871277	4224.209167	1433.670898	836.027039
-7439.871277	4224.209167	1432.598633	764.577759
-7439.871277	4224.209167	1431.525391	671.876953
-7439.871277	4224.209167	1430.452148	656.050415
-7439.871277	4224.209167	1429.378906	722.627319
-7439.871277	4224.209167	1428.304688	665.474304
-7439.871277	4224.209167	1427.231445	530.249451
-7439.871277	4224.209167	1426.157227	599.665649
-7439.871277	4224.209167	1425.083008	619.942078
-7439.871277	4224.209167	1424.007813	484.090149
-7439.871277	4224.209167	1422.933594	583.295532
-7439.871277	4224.209167	1421.858398	499.284546
-7439.871277	4224.209167	1420.783203	137.524902
-7439.871277	4224.209167	1419.708008	219.431458
-7439.871277	4224.209167	1418.631836	275.617676
-7439.871277	4224.209167	1417.555664	337.290222
-7439.871277	4224.209167	1416.479492	185.612976
-7439.871277	4224.209167	1415.403320	271.470490
-7439.871277	4224.209167	1414.327148	292.099884
-7439.871277	4224.209167	1413.250000	375.915771
-7439.871277	4224.209167	1412.173828	382.970184
-7439.871277	4224.209167	1411.096680	435.615112
-7439.871277	4224.209167	1410.018555	469.789124
-7439.871277	4224.209167	1408.941406	696.057312
-7439.871277	4224.209167	1407.863281	440.340515
-7439.871277	4224.209167	1406.785156	545.708801
-7439.871277	4224.209167	1405.707031	748.969421
-7439.871277	4224.209167	1404.628906	697.842957
-7439.871277	4224.209167	1403.549805	709.480957
-7439.871277	4224.209167	1402.470703	586.025391
-7439.871277	4224.209167	1401.391602	692.812866
-7439.871277	4224.209167	1400.312500	551.341125
-7439.871277	4224.209167	1399.233398	882.803223
-7439.871277	4224.209167	1398.153320	778.229187
-7439.871277	4224.209167	1397.073242	865.526978
-7439.871277	4224.209167	1395.993164	800.585022
-7439.871277	4224.209167	1394.913086	755.921509
-7439.871277	4224.209167	1393.832031	1002.236755
-7439.871277	4224.209167	1392.750977	865.601379
-7439.871277	4224.209167	1391.669922	1059.738770
-7439.871277	4224.209167	1390.588867	1296.702148
-7439.871277	4224.209167	1389.506836	1343.923706
-7439.871277	4224.209167	1388.425781	1554.959229
-7439.871277	4224.209167	1387.343750	1575.714111
-7439.871277	4224.209167	1386.261719	1489.763550
-7439.871277	4224.209167	1385.178711	1707.164795
-7439.871277	4224.209167	1384.096680	1627.700684
-7439.871277	4224.209167	1383.013672	1933.159912
-7439.871277	4224.209167	1381.930664	2000.472900
-7439.871277	4224.209167	1380.846680	1942.286987
-7439.871277	4224.209167	1379.763672	1948.624390
-7439.871277	4224.209167	1378.679688	1775.735718
-7439.871277	4224.209167	1377.595703	1626.820313
-7439.871277	4224.209167	1376.511719	1651.342529
-7439.871277	4224.209167	1375.427734	1526.294067
-7439.871277	4224.209167	1374.342773	1370.037842
-7439.871277	4224.209167	1373.257813	1426.579468
-7439.871277	4224.209167	1372.172852	1462.652832
-7439.871277	4224.209167	1371.087891	1618.716431
-7439.871277	4224.209167	1370.001953	1229.085449
-7439.871277	4224.209167	1368.916992	1505.537354
-7439.871277	4224.209167	1367.831055	1280.643677
-7439.871277	4224.209167	1366.744141	1228.966431
-7439.871277	4224.209167	1365.658203	1398.806152
-7439.871277	4224.209167	1364.571289	1269.588989
-7439.871277	4224.209167	1363.484375	1323.669678
-7439.871277	4224.209167	1362.397461	1467.416748
-7439.871277	4224.209167	1361.310547	1226.057251
-7439.871277	4224.209167	1360.222656	1317.595459
-7439.871277	4224.209167	1359.135742	1317.953979
-7439.871277	4224.209167	1358.047852	1030.512939
-7439.871277	4224.209167	1356.958984	1341.270264
-7439.871277	4224.209167	1355.871094	1437.552124
-7439.871277	4224.209167	1354.782227	1168.543213
-7439.871277	4224.209167	1353.693359	1327.123413
-7439.871277	4224.209167	1352.604492	1151.665283
-7439.871277	4224.209167	1351.515625	1193.928223
-7439.871277	4224.209167	1350.425781	1434.493164
-7439.871277	4224.209167	1349.335938	1509.534912
-7439.871277	4224.209167	1348.246094	1367.023560
-7439.871277	4224.209167	1347.156250	1642.195801
-7439.871277	4224.209167	1346.066406	1458.986816
-7439.871277	4224.209167	1344.975586	1325.763916
-7439.871277	4224.209167	1343.884766	1499.441895
-7439.871277	4224.209167	1342.793945	1383.341309
-7439.871277	4224.209167	1341.702148	1585.411987
-7439.871277	4224.209167	1340.611328	1613.581909
-7439.871277	4224.209167	1339.519531	1691.504028
-7439.871277	4224.209167	1338.427734	1547.391357
-7439.871277	4224.209167	1337.334961	1382.723511
-7439.871277	4224.209167	1336.243164	1187.953857
-7439.871277	4224.209167	1335.150391	1434.139526
-7439.871277	4224.209167	1334.057617	1366.999146
-7439.871277	4224.209167	1332.964844	1269.390381
-7439.871277	4224.209167	1331.871094	1444.478516
-7439.871277	4224.209167	1330.778320	1146.988159
-7439.871277	4224.209167	1329.684570	1094.476563
-7439.871277	4224.209167	1328.590820	1092.059814
-7439.871277	4224.209167	1327.496094	1145.437134
-7439.871277	4224.209167	1326.402344	1001.338806
-7439.871277	4224.209167	1325.307617	999.871399
-7439.871277	4224.209167	1324.212891	1129.033325
-7439.871277	4224.209167	1323.117188	1013.131775
-7439.871277	4224.209167	1322.022461	1148.584717
-7439.871277	4224.209167	1320.926758	996.243408
-7439.871277	4224.209167	1319.831055	898.125671
-7439.871277	4224.209167	1318.735352	1070.312744
-7439.871277	4224.209167	1317.638672	880.034973
-7439.871277	4224.209167	1316.542969	1096.627686
-7439.871277	4224.209167	1315.446289	993.681030
-7439.871277	4224.209167	1314.349609	998.410706
-7439.871277	4224.209167	1313.251953	1020.012878
-7439.871277	4224.209167	1312.155273	1039.096924
-7439.871277	4224.209167	1311.057617	1063.077759
-7439.871277	4224.209167	1309.959961	964.432373
-7439.871277	4224.209167	1308.862305	951.031189
-7439.871277	4224.209167	1307.763672	918.056091
-7439.871277	4224.209167	1306.665039	921.469421
-7439.871277	4224.209167	1305.566406	1079.160156
-7439.871277	4224.209167	1304.467773	912.628479
-7439.871277	4224.209167	1303.369141	1077.691162
-7439.871277	4224.209167	1302.269531	1199.268555
-7439.871277	4224.209167	1301.169922	1041.798218
-7439.871277	4224.209167	1300.070313	940.565796
-7439.871277	4224.209167	1298.970703	865.632935
-7439.871277	4224.209167	1297.870117	994.841980
-7439.871277	4224.209167	1296.769531	967.445923
-7439.871277	4224.209167	1295.668945	918.034912
-7439.871277	4224.209167	1294.568359	993.357239
-7439.871277	4224.209167	1293.466797	924.611755
-7439.871277	4224.209167	1292.366211	949.948364
-7439.871277	4224.209167	1291.264648	884.741211
-7439.871277	4224.209167	1290.162109	883.791504
-7439.871277	4224.209167	1289.060547	1122.567139
-7439.871277	4224.209167	1287.958008	991.046997
-7439.871277	4224.209167	1286.855469	1143.321655
-7439.871277	4224.209167	1285.752930	1274.640259
-7439.871277	4224.209167	1284.650391	1335.207397
-7439.871277	4224.209167	1283.546875	1397.684937
-7439.871277	4224.209167	1282.444336	1463.339355
-7439.871277	4224.209167	1281.339844	1526.374512
-7439.871277	4224.209167	1280.236328	1663.993164
-7439.871277	4224.209167	1279.132813	1294.755981
-7439.871277	4224.209167	1278.028320	1526.719727
-7439.871277	4224.209167	1276.923828	1317.638794
-7439.871277	4224.209167	1275.819336	1257.389404
-7439.871277	4224.209167	1274.713867	1184.069336
-7439.871277	4224.209167	1273.608398	1229.760864
-7439.871277	4224.209167	1272.503906	1082.367554
-7439.871277	4224.209167	1271.397461	1184.310913
-7439.871277	4224.209167	1270.291992	992.437317
-7439.871277	4224.209167	1269.185547	983.432983
-7439.871277	4224.209167	1268.080078	741.657166
-7439.871277	4224.209167	1266.972656	801.386047
-7439.871277	4224.209167	1265.866211	723.860474
-7439.871277	4224.209167	1264.759766	643.293823
-7439.871277	4224.209167	1263.652344	636.216858
-7439.871277	4224.209167	1262.544922	654.415710
-7439.871277	4224.209167	1261.436523	542.631104
-7439.871277	4224.209167	1260.329102	479.510193
-7439.871277	4224.209167	1259.220703	661.719849
-7439.871277	4224.209167	1258.112305	494.908417
-7439.871277	4224.209167	1257.003906	599.946289
-7439.871277	4224.209167	1255.895508	346.883423
-7439.871277	4224.209167	1254.786133	524.298706
-7439.871277	4224.209167	1253.676758	473.049286
-7439.871277	4224.209167	1252.567383	324.322021
-7439.871277	4224.209167	1251.458008	333.858307
-7439.871277	4224.209167	1250.347656	386.312195
-7439.871277	4224.209167	1249.237305	577.510620
-7439.871277	4224.209167	1248.126953	374.194061
-7439.871277	4224.209167	1247.016602	359.572693
-7439.871277	4224.209167	1245.905273	315.074066
-7439.871277	4224.209167	1244.793945	441.361969
-7439.871277	4224.209167	1243.682617	493.529449
-7439.871277	4224.209167	1242.571289	487.089386
-7439.871277	4224.209167	1241.459961	483.407288
-7439.871277	4224.209167	1240.347656	417.330688
-7439.871277	4224.209167	1239.235352	546.835754
-7439.871277	4224.209167	1238.123047	444.014648
-7439.871277	4224.209167	1237.009766	222.316360
-7439.871277	4224.209167	1235.897461	283.947052
-7439.871277	4224.209167	1234.784180	346.348541
-7439.871277	4224.209167	1233.670898	198.356491
-7439.871277	4224.209167	1232.556641	264.421936
-7439.871277	4224.209167	1231.443359	361.145477
-7439.871277	4224.209167	1230.329102	68.018822
-7439.871277	4224.209167	1229.214844	113.197899
-7439.871277	4224.209167	1228.099609	-7.032238
-7439.871277	4224.209167	1226.985352	53.391888
-7439.871277	4224.209167	1225.870117	147.743271
-7439.871277	4224.209167	1224.754883	15.726653
-7439.871277	4224.209167	1223.639648	66.354012
-7439.871277	4224.209167	1222.523438	-47.757549
-7439.871277	4224.209167	1221.408203	19.496487
-7439.871277	4224.209167	1220.291992	-43.394089
-7439.871277	4224.209167	1219.174805	-135.867477
-7439.871277	4224.209167	1218.058594	-94.357239
-7439.871277	4224.209167	1216.941406	56.261185
-7439.871277	4224.209167	1215.824219	138.632980
-7439.871277	4224.209167	1214.707031	107.354126
-7439.871277	4224.209167	1213.589844	136.338028
-7439.871277	4224.209167	1212.471680	80.251564
-7439.871277	4224.209167	1211.353516	19.359089
-7439.871277	4224.209167	1210.235352	225.856232
-7439.871277	4224.209167	1209.117188	1.379030
-7439.871277	4224.209167	1207.998047	155.748642
-7439.871277	4224.209167	1206.878906	79.247070
-7439.871277	4224.209167	1205.759766	11.101174
-7439.871277	4224.209167	1204.640625	14.790772
-7439.871277	4224.209167	1203.520508	73.580345
-7439.871277	4224.209167	1202.401367	-34.227055
-7439.871277	4224.209167	1201.281250	30.950914
-7439.871277	4224.209167	1200.160156	-51.660847
-7439.871277	4224.209167	1199.040039	57.982994
-7439.871277	4224.209167	1197.918945	45.748882
-7439.871277	4224.209167	1196.797852	-137.191406
-7439.871277	4224.209167	1195.676758	43.242538
-7439.871277	4224.209167	1194.555664	199.930969
-7439.871277	4224.209167	1193.433594	107.476135
-7439.871277	4224.209167	1192.311523	-21.977449
-7439.871277	4224.209167	1191.189453	41.917252
-7439.871277	4224.209167	1190.066406	104.160896
-7439.871277	4224.209167	1188.944336	172.638977
-7439.871277	4224.209167	1187.821289	97.307533
-7439.871277	4224.209167	1186.698242	43.876595
-7439.871277	4224.209167	1185.574219	118.010818
-7439.871277	4224.209167	1184.451172	-1.419749
-7439.871277	4224.209167	1183.327148	134.077881
-7439.871277	4224.209167	1182.203125	61.359348
-7439.871277	4224.209167	1181.078125	165.769897
-7439.871277	4224.209167	1179.954102	227.002060
-7439.871277	4224.209167	1178.829102	-22.719934
-7439.871277	4224.209167	1177.704102	-60.243439
-7439.871277	4224.209167	1176.579102	4.837224
-7439.871277	4224.209167	1175.453125	52.877945
-7439.871277	4224.209167	1174.327148	-1.909973
-7439.871277	4224.209167	1173.201172	2.395770
-7439.871277	4224.209167	1172.075195	-75.519829
-7439.871277	4224.209167	1170.949219	2.407150
-7439.871277	4224.209167	1169.822266	81.435791
-7439.871277	4224.209167	1168.695313	6.475797
-7439.871277	4224.209167	1167.568359	106.324493
-7439.871277	4224.209167	1166.440430	-12.096999
-7439.871277	4224.209167	1165.313477	-131.003616
-7439.871277	4224.209167	1164.185547	-107.009651
-7439.871277	4224.209167	1163.057617	-105.835098
-7439.871277	4224.209167	1161.928711	-48.443707
-7439.871277	4224.209167	1160.800781	-234.834351
-7439.871277	4224.209167	1159.671875	-293.274841
-7439.871277	4224.209167	1158.541992	-2.649536
-7439.871277	4224.209167	1157.413086	-121.624123
-7439.871277	4224.209167	1156.283203	-131.648224
-7439.871277	4224.209167	1155.154297	10.057943
-7439.871277	4224.209167	1154.023438	103.381958
-7439.871277	4224.209167	1152.893555	-18.824459
-7439.871277	4224.209167	1151.763672	-87.335739
-7439.871277	4224.209167	1150.632813	106.172173
-7439.871277	4224.209167	1149.501953	-87.042747
-7439.871277	4224.209167	1148.370117	-160.393814
-7439.871277	4224.209167	1147.239258	7.069211
-7439.871277	4224.209167	1146.107422	-61.682987
-7439.871277	4224.209167	1144.975586	-179.547546
-7439.871277	4224.209167	1143.843750	-181.696777
-7439.871277	4224.209167	1142.710938	-272.001190
-7439.871277	4224.209167	1141.578125	-250.368515
-7439.871277	4224.209167	1140.445313	-10.769888
-7439.871277	4224.209167	1139.312500	-197.744781
-7439.871277	4224.209167	1138.178711	-56.125721
-7439.871277	4224.209167	1137.045898	-69.744965
-7439.871277	4224.209167	1135.912109	-159.627579
-7439.871277	4224.209167	1134.777344	-120.723289
-7439.871277	4224.209167	1133.643555	-80.190254
-7439.871277	4224.209167	1132.508789	-116.056694
-7439.871277	4224.209167	1131.374023	-2.427243
-7439.871277	4224.209167	1130.239258	40.380356
-7439.871277	4224.209167	1129.104492	64.028824
-7439.871277	4224.209167	1127.968750	-25.145754
-7439.871277	4224.209167	1126.833008	12.280497
-7439.871277	4224.209167	1125.697266	47.940048
-7439.871277	4224.209167	1124.560547	-86.704185
-7439.871277	4224.209167	1123.424805	139.672867
-7439.871277	4224.209167	1122.288086	-15.694064
-7439.871277	4224.209167	1121.151367	-75.253899
-7439.871277	4224.209167	1120.013672	-110.737244
-7439.871277	4224.209167	1118.876953	-135.059860
-7439.871277	4224.209167	1117.739258	-36.831097
-7439.871277	4224.209167	1116.601563	-61.052418
-7439.871277	4224.209167	1115.462891	123.001472
-7439.871277	4224.209167	1114.324219	-1.915902
-7439.871277	4224.209167	1113.186523	-195.924850
-7439.871277	4224.209167	1112.046875	-66.140175
-7439.871277	4224.209167	1110.908203	-2.630244
-7439.871277	4224.209167	1109.769531	-95.146385
-7439.871277	4224.209167	1108.629883	-0.966468
-7439.871277	4224.209167	1107.490234	6.097898
-7439.871277	4224.209167	1106.349609	124.147659
-7439.871277	4224.209167	1105.209961	154.538742
-7439.871277	4224.209167	1104.069336	121.222260
-7439.871277	4224.209167	1102.928711	37.380966
-7439.871277	4224.209167	1101.787109	122.634201
-7439.871277	4224.209167	1100.646484	98.078506
-7439.871277	4224.209167	1099.504883	45.080673
-7439.871277	4224.209167	1098.363281	32.559986
-7439.871277	4224.209167	1097.221680	200.100235
-7439.871277	4224.209167	1096.079102	153.446503
-7439.871277	4224.209167	1094.936523	62.268250
-7439.871277	4224.209167	1093.793945	222.377792
-7439.871277	4224.209167	1092.651367	286.669464
-7439.871277	4224.209167	1091.507813	268.016144
-7439.871277	4224.209167	1090.364258	127.981010
-7439.871277	4224.209167	1089.220703	179.567841
-7439.871277	4224.209167	1088.077148	365.809692
-7439.871277	4224.209167	1086.933594	170.529602
-7439.871277	4224.209167	1085.789063	45.546516
-7439.871277	4224.209167	1084.644531	84.932724
-7439.871277	4224.209167	1083.499023	53.853725
-7439.871277	4224.209167	1082.354492	177.541534
-7439.871277	4224.209167	1081.208984	191.426865
-7439.871277	4224.209167	1080.063477	353.169128
-7439.871277	4224.209167	1078.917969	76.574898
-7439.871277	4224.209167	1077.771484	111.436348
-7439.871277	4224.209167	1076.625977	65.155975
-7439.871277	4224.209167	1075.479492	195.150330
-7439.871277	4224.209167	1074.332031	167.296112
-7439.871277	4224.209167	1073.185547	78.027382
-7439.871277	4224.209167	1072.038086	99.600227
-7439.871277	4224.209167	1070.890625	147.474350
-7439.871277	4224.209167	1069.743164	212.873306
-7439.871277	4224.209167	1068.594727	12.679756
-7439.871277	4224.209167	1067.447266	9.720900
-7439.871277	4224.209167	1066.298828	223.476944
-7439.871277	4224.209167	1065.149414	269.384186
-7439.871277	4224.209167	1064.000977	236.067993
-7439.871277	4224.209167	1062.851563	342.969238
-7439.871277	4224.209167	1061.702148	255.690628
-7439.871277	4224.209167	1060.552734	351.722382
-7439.871277	4224.209167	1059.402344	53.476063
-7439.871277	4224.209167	1058.252930	228.780731
-7439.871277	4224.209167	1057.102539	200.066971
-7439.871277	4224.209167	1055.951172	204.012329
-7439.871277	4224.209167	1054.800781	-38.070408
-7439.871277	4224.209167	1053.649414	91.220711
-7439.871277	4224.209167	1052.498047	235.569946
-7439.871277	4224.209167	1051.346680	128.339584
-7439.871277	4224.209167	1050.194336	72.576599
-7439.871277	4224.209167	1049.042969	-5.501397
-7439.871277	4224.209167	1047.890625	229.793182
-7439.871277	4224.209167	1046.738281	126.259132
-7439.871277	4224.209167	1045.584961	104.336761
-7439.871277	4224.209167	1044.431641	-86.313683
-7439.871277	4224.209167	1043.278320	-102.171661
-7439.871277	4224.209167	1042.125000	22.824398
-7439.871277	4224.209167	1040.971680	176.074936
-7439.871277	4224.209167	1039.817383	181.619644
-7439.871277	4224.209167	1038.663086	-85.021591
-7439.871277	4224.209167	1037.508789	57.943295
-7439.871277	4224.209167	1036.353516	250.546997
-7439.871277	4224.209167	1035.198242	80.996124
-7439.871277	4224.209167	1034.042969	201.032913
-7439.871277	4224.209167	1032.887695	158.850845
-7439.871277	4224.209167	1031.732422	161.085709
-7439.871277	4224.209167	1030.576172	248.316864
-7439.871277	4224.209167	1029.419922	83.420128
-7439.871277	4224.209167	1028.263672	142.793060
-7439.871277	4224.209167	1027.106445	236.377167
-7439.871277	4224.209167	1025.949219	17.373634
-7439.871277	4224.209167	1024.792969	109.080528
-7439.871277	4224.209167	1023.634766	58.432205
-7439.871277	4224.209167	1022.477539	218.810959
-7439.871277	4224.209167	1021.319336	73.441132
-7439.871277	4224.209167	1020.161133	-0.938685
-7439.871277	4224.209167	1019.002930	100.708740
-7439.871277	4224.209167	1017.843750	250.613586
-7439.871277	4224.209167	1016.684570	66.126915
-7439.871277	4224.209167	1015.525391	160.643387
-7439.871277	4224.209167	1014.366211	101.866272
-7439.871277	4224.209167	1013.207031	223.394363
-7439.871277	4224.209167	1012.046875	-42.161541
-7439.871277	4224.209167	1010.886719	-86.503822
-7439.871277	4224.209167	1009.726563	99.321770
-7439.871277	4224.209167	1008.565430	-75.235214
-7439.871277	4224.209167	1007.404297	-22.470764
-7439.871277	4224.209167	1006.243164	118.977592
-7439.871277	4224.209167	1005.082031	193.867844
-7439.871277	4224.209167	1003.920898	-0.747083
-7439.871277	4224.209167	1002.758789	188.064529
-7439.871277	4224.209167	1001.596680	219.730591
-7439.871277	4224.209167	1000.433594	144.812622
-7439.871277	4224.209167	999.271484	62.137341
-7439.871277	4224.209167	998.108398	131.797256
-7439.871277	4224.209167	996.945313	-10.781441
-7439.871277	4224.209167	995.782227	22.910229
-7439.871277	4224.209167	994.618164	177.640594
-7439.871277	4224.209167	993.454102	151.773468
-7439.871277	4224.209167	992.290039	-11.964355
-7439.871277	4224.209167	991.125977	172.956619
-7439.871277	4224.209167	989.960938	-208.276520
-7439.871277	4224.209167	988.796875	-83.980705
-7439.871277	4224.209167	987.630859	119.545380
-7439.871277	4224.209167	986.465820	43.277622
-7439.871277	4224.209167	985.300781	-142.432877
-7439.871277	4224.209167	984.134766	-26.334780
-7439.871277	4224.209167	982.968750	242.435196
-7439.871277	4224.209167	981.801758	171.352905
-7439.871277	4224.209167	980.635742	-62.104946
-7439.871277	4224.209167	979.468750	89.367531
-7439.871277	4224.209167	978.301758	53.741268
-7439.871277	4224.209167	977.133789	-62.952412
-7439.871277	4224.209167	975.966797	162.593658
-7439.871277	4224.209167	974.798828	45.480904
-7439.871277	4224.209167	973.630859	198.106232
-7439.871277	4224.209167	972.461914	91.235176
-7439.871277	4224.209167	971.293945	-83.364777
-7439.871277	4224.209167	970.125000	7.455316
-7439.871277	4224.209167	968.956055	-23.162354
-7439.871277	4224.209167	967.786133	131.539764
-7439.871277	4224.209167	966.617188	13.575627
-7439.871277	4224.209167	965.447266	233.514709
-7439.871277	4224.209167	964.276367	134.464584
-7439.871277	4224.209167	963.106445	33.855469
-7439.871277	4224.209167	961.935547	-4.779535
-7439.871277	4224.209167	960.764648	115.197205
-7439.871277	4224.209167	959.593750	18.933424
-7439.871277	4224.209167	958.422852	246.207703
-7439.871277	4224.209167	957.250977	243.944214
-7439.871277	4224.209167	956.079102	84.543465
-7439.871277	4224.209167	954.907227	62.345570
-7439.871277	4224.209167	953.734375	96.891762
-7439.871277	4224.209167	952.562500	119.591560
-7439.871277	4224.209167	951.389648	-127.970924
-7439.871277	4224.209167	950.215820	47.087269
-7439.871277	4224.209167	949.042969	-53.125843
-7439.871277	4224.209167	947.869141	-98.400421
-7439.871277	4224.209167	946.695313	37.049152
-7439.871277	4224.209167	945.521484	-87.509270
-7439.871277	4224.209167	944.346680	76.388077
-7439.871277	4224.209167	943.172852	-171.013672
-7439.871277	4224.209167	941.998047	-119.379089
-7439.871277	4224.209167	940.822266	37.461914
-7439.871277	4224.209167	939.647461	-36.790226
-7439.871277	4224.209167	938.471680	72.940903
-7439.871277	4224.209167	937.295898	-37.668144
-7439.871277	4224.209167	936.119141	96.666443
-7439.871277	4224.209167	934.943359	163.478424
-7439.871277	4224.209167	933.766602	207.891769
-7439.871277	4224.209167	932.589844	115.251137
-7439.871277	4224.209167	931.413086	58.468922
-7439.871277	4224.209167	930.235352	26.341448
-7439.871277	4224.209167	929.057617	122.149055
-7439.871277	4224.209167	927.879883	51.760189
-7439.871277	4224.209167	926.702148	-106.137375
-7439.871277	4224.209167	925.523438	-145.103897
-7439.871277	4224.209167	924.344727	-71.930191
-7439.871277	4224.209167	923.166016	158.200424
-7439.871277	4224.209167	921.987305	177.393723
-7439.871277	4224.209167	920.807617	64.242584
-7439.871277	4224.209167	919.627930	67.586243
-7439.871277	4224.209167	919.497070	14.236773
-7439.871277	4224.209167	918.331055	37.763351
-7439.871277	4224.209167	917.165039	-79.936394
-7439.871277	4224.209167	915.999023	17.454220
-7439.871277	4224.209167	914.833008	5.006737
-7439.871277	4224.209167	913.666016	196.324585
-7439.871277	4224.209167	912.499023	159.139771
-7439.871277	4224.209167	911.332031	52.531651
-7439.871277	4224.209167	910.165039	4.121576
-7439.871277	4224.209167	908.997070	-35.353363
-7439.871277	4224.209167	907.830078	1.212513
-7439.871277	4224.209167	906.661133	113.782768
-7439.871277	4224.209167	905.493164	-263.495300
-7439.871277	4224.209167	904.325195	-3.425639
-7439.871277	4224.209167	903.156250	-81.049667
-7439.871277	4224.209167	901.987305	-330.773773
-7439.871277	4224.209167	900.818359	40.767521
-7439.871277	4224.209167	899.648438	112.756363
-7439.871277	4224.209167	898.478516	21.625309
-7439.871277	4224.209167	897.308594	22.054298
-7439.871277	4224.209167	896.138672	-49.000366
-7439.871277	4224.209167	894.968750	27.268202
-7439.871277	4224.209167	893.797852	270.856415
-7439.871277	4224.209167	892.626953	168.450928
-7439.871277	4224.209167	891.456055	108.438660
-7439.871277	4224.209167	890.284180	-60.873486
-7439.871277	4224.209167	889.113281	282.742218
-7439.871277	4224.209167	887.941406	120.082893
-7439.871277	4224.209167	886.768555	155.844940
-7439.871277	4224.209167	885.596680	75.667412
-7439.871277	4224.209167	884.423828	95.758354
-7439.871277	4224.209167	883.250977	11.104406
-7439.871277	4224.209167	882.078125	-29.003185
-7439.871277	4224.209167	880.905273	-100.303459
-7439.871277	4224.209167	879.731445	-111.494682
-7439.871277	4224.209167	878.557617	-113.810806
-7439.871277	4224.209167	877.383789	128.638016
-7439.871277	4224.209167	876.209961	106.183083
-7439.871277	4224.209167	875.035156	-0.824213
-7439.871277	4224.209167	873.860352	101.240685
-7439.871277	4224.209167	872.685547	76.486382
-7439.871277	4224.209167	871.510742	-141.704102
-7439.871277	4224.209167	870.334961	-61.994114
-7439.871277	4224.209167	869.159180	-95.682838
-7439.871277	4224.209167	867.983398	-49.403862
-7439.871277	4224.209167	866.807617	174.530518
-7439.871277	4224.209167	865.630859	151.825958
-7439.871277	4224.209167	864.454102	0.316218
-7439.871277	4224.209167	863.277344	121.893066
-7439.871277	4224.209167	862.100586	-109.512634
-7439.871277	4224.209167	860.922852	45.263664
-7439.871277	4224.209167	859.745117	-143.937378
-7439.871277	4224.209167	858.567383	-26.987659
-7439.871277	4224.209167	857.389648	-162.930939
-7439.871277	4224.209167	856.210938	71.430435
-7439.871277	4224.209167	855.032227	128.323914
-7439.871277	4224.209167	853.853516	-60.847980
-7439.871277	4224.209167	852.674805	49.170780
-7439.871277	4224.209167	851.495117	119.238869
-7439.871277	4224.209167	850.315430	25.342628
-7439.871277	4224.209167	849.135742	-53.043179
-7439.871277	4224.209167	847.956055	-89.357841
-7439.871277	4224.209167	846.775391	135.518936
-7439.871277	4224.209167	845.595703	99.122398
-7439.871277	4224.209167	844.415039	-12.517021
-7439.871277	4224.209167	843.233398	187.786316
-7439.871277	4224.209167	842.052734	0.917389
-7439.871277	4224.209167	840.871094	-236.762451
-7439.871277	4224.209167	839.689453	-54.306709
-7439.871277	4224.209167	838.506836	-81.942947
-7439.871277	4224.209167	837.325195	-63.187355
-7439.871277	4224.209167	836.142578	-44.465900
-7439.871277	4224.209167	834.959961	-120.768532
-7439.871277	4224.209167	833.777344	-33.631268
-7439.871277	4224.209167	832.593750	-76.836456
-7439.871277	4224.209167	831.410156	-91.351540
-7439.871277	4224.209167	830.226563	-86.022095
-7439.871277	4224.209167	829.042969	-184.440781
-7439.871277	4224.209167	827.858398	-13.673275
-7439.871277	4224.209167	826.673828	-54.766994
-7439.871277	4224.209167	825.489258	177.601410
-7439.871277	4224.209167	824.304688	193.761139
-7439.871277	4224.209167	823.120117	-8.358022
-7439.871277	4224.209167	821.934570	84.923279
-7439.871277	4224.209167	820.749023	-103.920830
-7439.871277	4224.209167	819.562500	6.914923
-7439.871277	4224.209167	818.376953	-38.712933
-7439.871277	4224.209167	817.190430	-88.752586
-7439.871277	4224.209167	816.003906	28.537758
-7439.871277	4224.209167	814.817383	-23.748064
-7439.871277	4224.209167	813.629883	-188.281464
-7439.871277	4224.209167	812.442383	-40.314747
-7439.871277	4224.209167	811.254883	23.965658
-7439.871277	4224.209167	810.067383	143.181885
-7439.871277	4224.209167	808.878906	-89.523109
-7439.871277	4224.209167	807.690430	-67.121284
-7439.871277	4224.209167	806.501953	-229.398697
-7439.871277	4224.209167	805.313477	-40.004700
-7439.871277	4224.209167	804.124023	103.143997
-7439.871277	4224.209167	802.934570	26.529615
-7439.871277	4224.209167	801.745117	31.186398
-7439.871277	4224.209167	800.555664	-43.235210
-7439.871277	4224.209167	799.365234	75.544273
-7439.871277	4224.209167	798.175781	82.305862
-7439.871277	4224.209167	796.985352	18.816456
-7439.871277	4224.209167	795.793945	-51.254040
-7439.871277	4224.209167	794.603516	47.584492
-7439.871277	4224.209167	793.412109	-0.581849
-7439.871277	4224.209167	792.220703	23.604332
-7439.871277	4224.209167	791.028320	71.869621
-7439.871277	4224.209167	789.836914	17.076370
-7439.871277	4224.209167	788.644531	-64.014694
-7439.871277	4224.209167	787.452148	-37.745327
-7439.871277	4224.209167	786.258789	-107.889999
-7439.871277	4224.209167	785.066406	19.065151
-7439.871277	4224.209167	783.873047	-5.132980
-7439.871277	4224.209167	782.679688	101.996193
-7439.871277	4224.209167	781.485352	-38.255489
-7439.871277	4224.209167	780.291992	-53.749012
-7439.871277	4224.209167	779.097656	61.998688
-7439.871277	4224.209167	777.903320	24.567871
-7439.871277	4224.209167	776.708008	-82.850281
-7439.871277	4224.209167	775.512695	100.531555
-7439.871277	4224.209167	774.318359	14.950989
-7439.871277	4224.209167	773.122070	12.426704
-7439.871277	4224.209167	771.926758	149.715439
-7439.871277	4224.209167	770.730469	18.226704
-7439.871277	4224.209167	769.534180	-58.629986
-7439.871277	4224.209167	768.337891	-65.605606
-7439.871277	4224.209167	767.141602	-61.688435
-7439.871277	4224.209167	765.944336	-134.191391
-7439.871277	4224.209167	764.747070	-171.774231
-7439.871277	4224.209167	763.549805	-32.643024
-7439.871277	4224.209167	762.351563	106.404877
-7439.871277	4224.209167	761.154297	-27.238943
-7439.871277	4224.209167	759.956055	-49.650677
-7439.871277	4224.209167	758.757813	-30.659916
-7439.871277	4224.209167	757.558594	1.373400
-7439.871277	4224.209167	756.359375	92.203697
-7439.871277	4224.209167	755.160156	104.539963
-7439.871277	4224.209167	753.960938	73.283554
-7439.871277	4224.209167	752.761719	-82.114349
-7439.871277	4224.209167	751.561523	-17.572395
-7439.871277	4224.209167	750.361328	114.398323
-7439.871277	4224.209167	749.160156	17.771711
-7439.871277	4224.209167	747.959961	-13.562181
-7439.871277	4224.209167	746.758789	-129.751266
-7439.871277	4224.209167	745.557617	136.877029
-7439.871277	4224.209167	744.356445	72.842232
-7439.871277	4224.209167	743.154297	-56.414082
-7439.871277	4224.209167	741.952148	-53.052284
-7439.871277	4224.209167	740.750000	-114.912224
-7439.871277	4224.209167	739.547852	196.932846
-7439.871277	4224.209167	738.344727	197.989883
-7439.871277	4224.209167	737.142578	96.946136
-7439.871277	4224.209167	735.939453	302.078186
-7439.871277	4224.209167	734.735352	578.736511
-7439.871277	4224.209167	733.532227	544.881958
-7439.871277	4224.209167	732.328125	511.015625
-7439.871277	4224.209167	731.124023	655.037781
-7439.871277	4224.209167	729.918945	816.326355
-7439.871277	4224.209167	728.714844	879.933228
-7439.871277	4224.209167	727.509766	1062.737061
-7439.871277	4224.209167	726.303711	662.320984
-7439.871277	4224.209167	725.098633	537.290588
-7439.871277	4224.209167	723.892578	332.113373
-7439.871277	4224.209167	722.686523	430.284637
-7439.871277	4224.209167	721.480469	324.795563
-7439.871277	4224.209167	720.274414	290.782898
-7439.871277	4224.209167	719.067383	139.848999
-7439.871277	4224.209167	717.860352	4.103422
-7439.871277	4224.209167	716.653320	80.469032
-7439.871277	4224.209167	715.445313	117.830338
-7439.871277	4224.209167	714.238281	-30.882404
-7439.871277	4224.209167	713.030273	62.665211
-7439.871277	4224.209167	711.821289	115.062996
-7439.871277	4224.209167	710.613281	35.543087
-7439.871277	4224.209167	709.404297	20.870441
-7439.871277	4224.209167	708.195313	131.511261
-7439.871277	4224.209167	706.986328	-205.136002
-7439.871277	4224.209167	705.776367	35.053291
-7439.871277	4224.209167	704.566406	177.935028
-7439.871277	4224.209167	703.356445	119.935036
-7439.871277	4224.209167	702.146484	-52.474941
-7439.871277	4224.209167	700.935547	53.567898
-7439.871277	4224.209167	699.724609	99.122681
-7439.871277	4224.209167	698.513672	-49.523411
-7439.871277	4224.209167	697.302734	62.845497
-7439.871277	4224.209167	696.090820	-64.219376
-7439.871277	4224.209167	694.878906	15.713276
-7439.871277	4224.209167	693.666992	84.808556
-7439.871277	4224.209167	692.455078	119.369270
-7439.871277	4224.209167	691.242188	233.607712
-7439.871277	4224.209167	690.029297	265.916229
-7439.871277	4224.209167	688.816406	156.043884
-7439.871277	4224.209167	687.602539	97.868011
-7439.871277	4224.209167	686.389648	84.901848
-7439.871277	4224.209167	685.175781	181.681122
-7439.871277	4224.209167	683.960938	336.493011
-7439.871277	4224.209167	682.747070	172.808853
-7439.871277	4224.209167	681.532227	161.885025
-7439.871277	4224.209167	680.317383	114.381607
-7439.871277	4224.209167	679.102539	-6.226688
-7439.871277	4224.209167	677.886719	288.059387
-7439.871277	4224.209167	676.670898	236.187103
-7439.871277	4224.209167	675.455078	171.419296
-7439.871277	4224.209167	674.239258	190.435776
-7439.871277	4224.209167	673.022461	168.610733
-7439.871277	4224.209167	671.805664	271.315369
-7439.871277	4224.209167	670.588867	292.372101
-7439.871277	4224.209167	669.372070	40.801559
-7439.871277	4224.209167	668.154297	124.081444
-7439.871277	4224.209167	666.936523	54.971684
-7439.871277	4224.209167	665.718750	-209.332230
-7439.871277	4224.209167	664.500977	109.785103
-7439.871277	4224.209167	663.282227	212.184113
-7439.871277	4224.209167	662.063477	194.468597
-7439.871277	4224.209167	660.844727	65.290100
-7439.871277	4224.209167	659.625000	-33.860123
-7439.871277	4224.209167	658.405273	46.967484
-7439.871277	4224.209167	657.185547	144.873718
-7439.871277	4224.209167	655.965820	176.331451
-7439.871277	4224.209167	654.745117	60.025249
-7439.871277	4224.209167	653.525391	183.488007
-7439.871277	4224.209167	652.303711	236.250473
-7439.871277	4224.209167	651.083008	175.572418
-7439.871277	4224.209167	649.861328	189.767029
-7439.871277	4224.209167	648.640625	169.718887
-7439.871277	4224.209167	647.417969	224.493774
-7439.871277	4224.209167	646.196289	230.057693
-7439.871277	4224.209167	644.973633	162.926865
-7439.871277	4224.209167	643.750977	296.675110
-7439.871277	4224.209167	642.528320	30.828131
-7439.871277	4224.209167	641.305664	-51.228073
-7439.871277	4224.209167	640.082031	-30.763130
-7439.871277	4224.209167	638.858398	173.294922
-7439.871277	4224.209167	637.634766	61.318439
-7439.871277	4224.209167	636.410156	107.300484
-7439.871277	4224.209167	635.185547	102.035706
-7439.871277	4224.209167	633.960938	135.155289
-7439.871277	4224.209167	632.736328	76.530663
-7439.871277	4224.209167	631.510742	103.208542
-7439.871277	4224.209167	630.285156	285.491486
-7439.871277	4224.209167	629.059570	150.088821
-7439.871277	4224.209167	627.833984	342.908112
-7439.871277	4224.209167	626.607422	103.117188
-7439.871277	4224.209167	625.380859	168.023529
-7439.871277	4224.209167	624.154297	132.792526
-7439.871277	4224.209167	622.927734	52.849388
-7439.871277	4224.209167	621.700195	217.732971
-7439.871277	4224.209167	620.472656	10.075060
-7439.871277	4224.209167	619.245117	264.243225
-7439.871277	4224.209167	618.016602	75.782219
-7439.871277	4224.209167	616.788086	146.880478
-7439.871277	4224.209167	615.559570	120.116547
-7439.871277	4224.209167	614.331055	274.068939
-7439.871277	4224.209167	613.101563	62.335140
-7439.871277	4224.209167	611.872070	-142.944214
-7439.871277	4224.209167	610.642578	129.915878
-7439.871277	4224.209167	609.413086	107.376778
-7439.871277	4224.209167	608.182617	-231.613480
-7439.871277	4224.209167	606.952148	-167.029419
-7439.871277	4224.209167	605.721680	-87.620598
-7439.871277	4224.209167	604.491211	-169.560410
-7439.871277	4224.209167	603.259766	-115.667427
-7439.871277	4224.209167	602.028320	-193.340942
-7439.871277	4224.209167	600.796875	-181.901779
-7439.871277	4224.209167	599.564453	73.399834
-7439.871277	4224.209167	598.332031	-38.209389
-7439.871277	4224.209167	597.099609	68.558128
-7439.871277	4224.209167	595.867188	-32.416294
-7439.871277	4224.209167	594.633789	-139.711960
-7439.871277	4224.209167	593.400391	-181.294540
-7439.871277	4224.209167	592.166992	-36.482887
-7439.871277	4224.209167	590.933594	104.028160
-7439.871277	4224.209167	589.699219	24.300901
-7439.871277	4224.209167	588.464844	-44.810974
-7439.871277	4224.209167	587.230469	133.694962
-7439.871277	4224.209167	585.995117	22.269691
-7439.871277	4224.209167	584.760742	58.960945
-7439.871277	4224.209167	583.525391	-92.582741
-7439.871277	4224.209167	582.289063	-38.973186
-7439.871277	4224.209167	581.053711	35.756287
-7439.871277	4224.209167	579.817383	-170.635422
-7439.871277	4224.209167	578.581055	-38.858105
-7439.871277	4224.209167	577.343750	124.549980
-7439.871277	4224.209167	576.107422	188.625778
-7439.871277	4224.209167	574.870117	-15.503621
-7439.871277	4224.209167	573.631836	175.248215
-7439.871277	4224.209167	572.394531	-68.888451
-7439.871277	4224.209167	571.156250	286.404907
-7439.871277	4224.209167	569.917969	-31.487770
-7439.871277	4224.209167	568.679688	91.623398
-7439.871277	4224.209167	567.440430	195.704086
-7439.871277	4224.209167	566.202148	268.123169
-7439.871277	4224.209167	564.961914	123.384140
-7439.871277	4224.209167	563.722656	-12.852524
-7439.871277	4224.209167	562.482422	186.010071
-7439.871277	4224.209167	561.243164	56.154190
-7439.871277	4224.209167	560.001953	29.563879
-7439.871277	4224.209167	558.761719	99.861397
-7439.871277	4224.209167	557.520508	186.979614
-7439.871277	4224.209167	556.279297	46.742737
-7439.871277	4224.209167	555.038086	51.782013
-7439.871277	4224.209167	553.795898	54.723274
-7439.871277	4224.209167	552.554688	24.020088
-7439.871277	4224.209167	551.311523	96.388077
-7439.871277	4224.209167	550.069336	2.630878
-7439.871277	4224.209167	548.826172	26.646269
-7439.871277	4224.209167	547.583984	48.564445
-7439.871277	4224.209167	546.339844	-74.508263
-7439.871277	4224.209167	545.096680	-94.571144
-7439.871277	4224.209167	543.852539	-236.437302
-7439.871277	4224.209167	542.608398	56.458412
-7439.871277	4224.209167	541.364258	-26.565380
-7439.871277	4224.209167	540.119141	-40.274467
-7439.871277	4224.209167	538.875000	-45.566280
-7439.871277	4224.209167	537.628906	-2.588244
-7439.871277	4224.209167	536.383789	40.388493
-7439.871277	4224.209167	535.137695	1.566496
-7439.871277	4224.209167	533.892578	128.425110
-7439.871277	4224.209167	532.645508	81.244705
-7439.871277	4224.209167	531.399414	23.622068
-7439.871277	4224.209167	530.152344	35.186539
-7439.871277	4224.209167	528.905273	-223.492203
-7439.871277	4224.209167	527.658203	-33.812550
-7439.871277	4224.209167	526.410156	11.307253
-7439.871277	4224.209167	525.163086	-8.478020
-7439.871277	4224.209167	523.914063	-91.040215
-7439.871277	4224.209167	522.666016	-77.282051
-7439.871277	4224.209167	521.416992	43.189480
-7439.871277	4224.209167	520.167969	-99.946838
-7439.871277	4224.209167	518.918945	-63.148224
-7439.871277	4224.209167	517.669922	126.290184
-7439.871277	4224.209167	516.419922	102.427574
-7439.871277	4224.209167	515.169922	-36.363136
-7439.871277	4224.209167	513.919922	-206.424057
-7439.871277	4224.209167	512.668945	-200.910934
-7439.871277	4224.209167	511.417969	-80.508606
-7439.871277	4224.209167	510.166992	-116.764389
-7439.871277	4224.209167	508.916016	14.031209
-7439.871277	4224.209167	507.664063	82.160805
-7439.871277	4224.209167	506.412109	-12.506950
-7439.871277	4224.209167	505.160156	-180.148453
-7439.871277	4224.209167	503.907227	21.512980
-7439.871277	4224.209167	502.655273	-154.387573
-7439.871277	4224.209167	501.402344	-125.864586
-7439.871277	4224.209167	500.148438	-82.754768
-7439.871277	4224.209167	498.895508	-45.907589
-7439.871277	4224.209167	497.641602	-17.407955
-7439.871277	4224.209167	496.387695	77.750992
-7439.871277	4224.209167	495.132813	-47.912228
-7439.871277	4224.209167	493.878906	97.197960
-7439.871277	4224.209167	492.624023	-132.510361
-7439.871277	4224.209167	491.368164	-22.832338
-7439.871277	4224.209167	490.113281	-177.496811
-7439.871277	4224.209167	488.857422	-24.165236
-7439.871277	4224.209167	487.601563	-243.255020
-7439.871277	4224.209167	486.344727	190.778275
-7439.871277	4224.209167	485.088867	88.165489
-7439.871277	4224.209167	483.832031	114.474411
-7439.871277	4224.209167	482.575195	36.842987
-7439.871277	4224.209167	481.317383	65.205986
-7439.871277	4224.209167	480.059570	112.242218
-7439.871277	4224.209167	478.801758	144.702713
-7439.871277	4224.209167	477.543945	-45.062954
-7439.871277	4224.209167	476.285156	47.587620
-7439.871277	4224.209167	475.027344	13.561553
-7439.871277	4224.209167	473.767578	-103.488327
-7439.871277	4224.209167	472.508789	69.961227
-7439.871277	4224.209167	471.249023	-40.880470
-7439.871277	4224.209167	469.989258	408.249756
-7439.871277	4224.209167	468.729492	23.619823
-7439.871277	4224.209167	467.469727	35.065868
-7439.871277	4224.209167	466.208984	-30.218859
-7439.871277	4224.209167	464.948242	-20.921661
-7439.871277	4224.209167	463.686523	187.204132
-7439.871277	4224.209167	462.425781	204.641327
-7439.871277	4224.209167	461.164063	139.186829
-7439.871277	4224.209167	459.901367	-29.814217
-7439.871277	4224.209167	458.639648	109.615036
-7439.871277	4224.209167	457.376953	33.697655
-7439.871277	4224.209167	456.114258	-67.081367
-7439.871277	4224.209167	454.851563	10.008533
-7439.871277	4224.209167	453.587891	86.989098
-7439.871277	4224.209167	452.324219	217.616577
-7439.871277	4224.209167	451.060547	166.191452
-7439.871277	4224.209167	449.796875	306.910553
-7439.871277	4224.209167	448.532227	364.823181
-7439.871277	4224.209167	447.267578	393.692108
-7439.871277	4224.209167	446.002930	207.644394
-7439.871277	4224.209167	444.737305	182.635895
-7439.871277	4224.209167	443.471680	370.173309
-7439.871277	4224.209167	442.206055	307.760254
-7439.871277	4224.209167	440.940430	82.226288
-7439.871277	4224.209167	439.673828	164.073181
-7439.871277	4224.209167	438.407227	239.563187
-7439.871277	4224.209167	437.140625	154.023483
-7439.871277	4224.209167	435.873047	258.061432
-7439.871277	4224.209167	434.605469	194.929367
-7439.871277	4224.209167	433.337891	137.850372
-7439.871277	4224.209167	432.070313	20.876539
-7439.871277	4224.209167	430.801758	173.644318
-7439.871277	4224.209167	429.533203	-15.727077
-7439.871277	4224.209167	428.264648	256.051178
-7439.871277	4224.209167	426.996094	344.292084
-7439.871277	4224.209167	425.726563	294.385681
-7439.871277	4224.209167	424.457031	240.175552
-7439.871277	4224.209167	423.186523	163.136871
-7439.871277	4224.209167	421.916992	318.345062
-7439.871277	4224.209167	420.646484	522.603516
-7439.871277	4224.209167	419.375977	350.275085
-7439.871277	4224.209167	418.104492	418.269012
-7439.871277	4224.209167	416.833008	276.347473
-7439.871277	4224.209167	415.561523	236.953415
-7439.871277	4224.209167	414.290039	400.669250
-7439.871277	4224.209167	413.017578	64.941452
-7439.871277	4224.209167	411.746094	-18.369114
-7439.871277	4224.209167	410.472656	333.252228
-7439.871277	4224.209167	409.200195	425.795715
-7439.871277	4224.209167	407.926758	113.710487
-7439.871277	4224.209167	406.653320	29.144279
-7439.871277	4224.209167	405.379883	241.675781
-7439.871277	4224.209167	404.105469	279.432434
-7439.871277	4224.209167	402.831055	253.236710
-7439.871277	4224.209167	401.556641	269.708466
-7439.871277	4224.209167	400.282227	193.548340
-7439.871277	4224.209167	399.006836	49.383381
-7439.871277	4224.209167	397.731445	347.321228
-7439.871277	4224.209167	396.456055	52.808693
-7439.871277	4224.209167	395.179688	85.569557
-7439.871277	4224.209167	393.903320	230.438065
-7439.871277	4224.209167	392.626953	258.098358
-7439.871277	4224.209167	391.350586	379.373932
-7439.871277	4224.209167	390.073242	297.535583
-7439.871277	4224.209167	388.795898	276.563232
-7439.871277	4224.209167	387.518555	148.719757
-7439.871277	4224.209167	386.240234	224.801056
-7439.871277	4224.209167	384.961914	138.793991
-7439.871277	4224.209167	383.683594	258.628387
-7439.871277	4224.209167	382.405273	198.003265
-7439.871277	4224.209167	381.125977	65.263962
-7439.871277	4224.209167	379.846680	313.832214
-7439.871277	4224.209167	378.567383	161.433212
-7439.871277	4224.209167	377.287109	204.367676
-7439.871277	4224.209167	376.006836	166.981415
-7439.871277	4224.209167	374.726563	269.678162
-7439.871277	4224.209167	373.446289	34.981377
-7439.871277	4224.209167	372.165039	130.013077
-7439.871277	4224.209167	370.883789	79.437950
-7439.871277	4224.209167	369.602539	231.946136
-7439.871277	4224.209167	368.320313	124.678040
-7439.871277	4224.209167	367.039063	41.079235
-7439.871277	4224.209167	365.755859	135.885803
-7439.871277	4224.209167	364.473633	268.475189
-7439.871277	4224.209167	363.190430	108.845428
-7439.871277	4224.209167	361.907227	200.804916
-7439.871277	4224.209167	360.624023	-42.082428
-7439.871277	4224.209167	359.340820	39.761509
-7439.871277	4224.209167	358.056641	96.104431
-7439.871277	4224.209167	356.772461	238.846466
-7439.871277	4224.209167	355.487305	89.587624
-7439.871277	4224.209167	354.202148	158.892578
-7439.871277	4224.209167	352.916992	70.499962
-7439.871277	4224.209167	351.631836	-94.215431
-7439.871277	4224.209167	350.346680	61.014252
-7439.871277	4224.209167	349.060547	-0.422105
-7439.871277	4224.209167	347.774414	-48.863602
-7439.871277	4224.209167	346.487305	-3.154888
-7439.871277	4224.209167	345.200195	-293.772125
-7439.871277	4224.209167	343.913086	43.639534
-7439.871277	4224.209167	342.625977	26.415751
-7439.871277	4224.209167	341.338867	-28.729460
-7439.871277	4224.209167	340.050781	-73.161583
-7439.871277	4224.209167	338.762695	-208.287399
-7439.871277	4224.209167	337.473633	-158.367569
-7439.871277	4224.209167	336.184570	-162.725967
-7439.871277	4224.209167	334.895508	-8.558053
-7439.871277	4224.209167	333.606445	-117.470055
-7439.871277	4224.209167	332.317383	-86.186035
-7439.871277	4224.209167	331.027344	-186.286560
-7439.871277	4224.209167	329.736328	92.559593
-7439.871277	4224.209167	328.446289	-57.618755
-7439.871277	4224.209167	327.155273	-187.338364
-7439.871277	4224.209167	325.864258	-88.168922
-7439.871277	4224.209167	324.573242	-1.062391
-7439.871277	4224.209167	323.281250	-19.157867
-7439.871277	4224.209167	321.989258	-65.527084
-7439.871277	4224.209167	320.697266	120.623779
-7439.871277	4224.209167	319.405273	-8.709099
-7439.871277	4224.209167	318.112305	-107.838135
-7439.871277	4224.209167	316.819336	3.056432
-7439.871277	4224.209167	315.526367	20.774031
-7439.871277	4224.209167	314.232422	19.987963
-7439.871277	4224.209167	312.938477	47.166771
-7439.871277	4224.209167	311.644531	-97.617233
-7439.871277	4224.209167	310.349609	-65.203529
-7439.871277	4224.209167	309.054688	267.400452
-7439.871277	4224.209167	307.759766	284.622742
-7439.871277	4224.209167	306.464844	220.587875
-7439.871277	4224.209167	305.168945	232.507645
-7439.871277	4224.209167	303.873047	296.158630
-7439.871277	4224.209167	302.577148	244.147888
-7439.871277	4224.209167	301.281250	334.444855
-7439.871277	4224.209167	299.984375	566.809753
