#X		#Y		#Wave		#Intensity
-7400.586543	4237.919833	1999.946289	-31.984119
-7400.586543	4237.919833	1998.981445	-36.342724
-7400.586543	4237.919833	1998.017578	165.889877
-7400.586543	4237.919833	1997.052734	-55.405262
-7400.586543	4237.919833	1996.088867	122.596992
-7400.586543	4237.919833	1995.124023	82.828041
-7400.586543	4237.919833	1994.159180	-40.844852
-7400.586543	4237.919833	1993.193359	170.100525
-7400.586543	4237.919833	1992.228516	29.684696
-7400.586543	4237.919833	1991.262695	-318.347534
-7400.586543	4237.919833	1990.296875	24.507126
-7400.586543	4237.919833	1989.331055	43.338390
-7400.586543	4237.919833	1988.365234	109.416771
-7400.586543	4237.919833	1987.398438	-126.064255
-7400.586543	4237.919833	1986.432617	29.527658
-7400.586543	4237.919833	1985.465820	-118.845009
-7400.586543	4237.919833	1984.499023	138.492050
-7400.586543	4237.919833	1983.532227	138.894897
-7400.586543	4237.919833	1982.565430	82.669876
-7400.586543	4237.919833	1981.597656	71.139435
-7400.586543	4237.919833	1980.629883	62.283085
-7400.586543	4237.919833	1979.662109	38.803978
-7400.586543	4237.919833	1978.694336	-1.764533
-7400.586543	4237.919833	1977.726563	81.312180
-7400.586543	4237.919833	1976.758789	-32.944031
-7400.586543	4237.919833	1975.790039	-11.249022
-7400.586543	4237.919833	1974.821289	156.191574
-7400.586543	4237.919833	1973.852539	-26.597185
-7400.586543	4237.919833	1972.883789	15.302457
-7400.586543	4237.919833	1971.915039	-144.888931
-7400.586543	4237.919833	1970.945313	50.187317
-7400.586543	4237.919833	1969.975586	131.931641
-7400.586543	4237.919833	1969.005859	122.585419
-7400.586543	4237.919833	1968.036133	2.478945
-7400.586543	4237.919833	1967.066406	-23.826895
-7400.586543	4237.919833	1966.096680	68.247421
-7400.586543	4237.919833	1965.125977	0.309921
-7400.586543	4237.919833	1964.155273	-25.623043
-7400.586543	4237.919833	1963.184570	54.434551
-7400.586543	4237.919833	1962.213867	36.104549
-7400.586543	4237.919833	1961.242188	101.563133
-7400.586543	4237.919833	1960.271484	-5.150690
-7400.586543	4237.919833	1959.299805	35.883213
-7400.586543	4237.919833	1958.328125	-77.971344
-7400.586543	4237.919833	1957.356445	-4.787434
-7400.586543	4237.919833	1956.384766	56.159805
-7400.586543	4237.919833	1955.412109	92.580757
-7400.586543	4237.919833	1954.439453	45.495403
-7400.586543	4237.919833	1953.467773	-114.541351
-7400.586543	4237.919833	1952.495117	84.278107
-7400.586543	4237.919833	1951.521484	-73.112801
-7400.586543	4237.919833	1950.548828	-28.978743
-7400.586543	4237.919833	1949.575195	74.136932
-7400.586543	4237.919833	1948.601563	-68.248749
-7400.586543	4237.919833	1947.627930	-53.421055
-7400.586543	4237.919833	1946.654297	-139.172974
-7400.586543	4237.919833	1945.680664	-65.344337
-7400.586543	4237.919833	1944.706055	72.291306
-7400.586543	4237.919833	1943.732422	21.045130
-7400.586543	4237.919833	1942.757813	28.718723
-7400.586543	4237.919833	1941.783203	-93.528252
-7400.586543	4237.919833	1940.807617	-78.406456
-7400.586543	4237.919833	1939.833008	115.673500
-7400.586543	4237.919833	1938.857422	-16.223547
-7400.586543	4237.919833	1937.881836	123.928337
-7400.586543	4237.919833	1936.906250	60.727367
-7400.586543	4237.919833	1935.930664	-12.223313
-7400.586543	4237.919833	1934.955078	181.796692
-7400.586543	4237.919833	1933.978516	-3.732284
-7400.586543	4237.919833	1933.001953	-56.987293
-7400.586543	4237.919833	1932.025391	-39.231197
-7400.586543	4237.919833	1931.048828	78.858162
-7400.586543	4237.919833	1930.072266	-42.844280
-7400.586543	4237.919833	1929.094727	-22.620562
-7400.586543	4237.919833	1928.118164	-31.743492
-7400.586543	4237.919833	1927.140625	-92.206726
-7400.586543	4237.919833	1926.163086	89.383209
-7400.586543	4237.919833	1925.184570	102.255219
-7400.586543	4237.919833	1924.207031	32.032143
-7400.586543	4237.919833	1923.228516	157.301575
-7400.586543	4237.919833	1922.250000	89.534309
-7400.586543	4237.919833	1921.271484	175.659393
-7400.586543	4237.919833	1920.292969	81.041466
-7400.586543	4237.919833	1919.314453	30.397753
-7400.586543	4237.919833	1918.334961	133.551163
-7400.586543	4237.919833	1917.355469	153.673889
-7400.586543	4237.919833	1916.375977	-189.804840
-7400.586543	4237.919833	1915.396484	-167.214508
-7400.586543	4237.919833	1914.416992	-210.506653
-7400.586543	4237.919833	1913.436523	7.150531
-7400.586543	4237.919833	1912.457031	24.766298
-7400.586543	4237.919833	1911.476563	44.795673
-7400.586543	4237.919833	1910.496094	-49.762653
-7400.586543	4237.919833	1909.515625	-93.129578
-7400.586543	4237.919833	1908.534180	94.966255
-7400.586543	4237.919833	1907.552734	-2.050536
-7400.586543	4237.919833	1906.572266	-99.055008
-7400.586543	4237.919833	1905.590820	54.771091
-7400.586543	4237.919833	1904.608398	-54.432686
-7400.586543	4237.919833	1903.626953	-12.701353
-7400.586543	4237.919833	1902.644531	46.022537
-7400.586543	4237.919833	1901.663086	-14.538041
-7400.586543	4237.919833	1900.680664	83.030746
-7400.586543	4237.919833	1899.698242	-55.413414
-7400.586543	4237.919833	1898.714844	248.779739
-7400.586543	4237.919833	1897.732422	-47.756310
-7400.586543	4237.919833	1896.749023	-203.213333
-7400.586543	4237.919833	1895.765625	183.375946
-7400.586543	4237.919833	1894.782227	-11.018488
-7400.586543	4237.919833	1893.798828	261.123138
-7400.586543	4237.919833	1892.814453	71.572189
-7400.586543	4237.919833	1891.831055	61.784912
-7400.586543	4237.919833	1890.846680	105.385696
-7400.586543	4237.919833	1889.862305	-84.144165
-7400.586543	4237.919833	1888.877930	-118.286697
-7400.586543	4237.919833	1887.892578	257.699066
-7400.586543	4237.919833	1886.908203	77.833351
-7400.586543	4237.919833	1885.922852	65.391655
-7400.586543	4237.919833	1884.937500	-92.622948
-7400.586543	4237.919833	1883.952148	-153.615250
-7400.586543	4237.919833	1882.965820	-3.679331
-7400.586543	4237.919833	1881.980469	172.824692
-7400.586543	4237.919833	1880.994141	26.855568
-7400.586543	4237.919833	1880.007813	-58.520821
-7400.586543	4237.919833	1879.021484	-34.879082
-7400.586543	4237.919833	1878.035156	22.623178
-7400.586543	4237.919833	1877.047852	-33.776253
-7400.586543	4237.919833	1876.061523	105.944977
-7400.586543	4237.919833	1875.074219	112.408287
-7400.586543	4237.919833	1874.086914	-50.619881
-7400.586543	4237.919833	1873.098633	57.422352
-7400.586543	4237.919833	1872.111328	124.243309
-7400.586543	4237.919833	1871.123047	-191.249741
-7400.586543	4237.919833	1870.135742	76.259140
-7400.586543	4237.919833	1869.147461	89.691711
-7400.586543	4237.919833	1868.158203	161.099380
-7400.586543	4237.919833	1867.169922	155.076721
-7400.586543	4237.919833	1866.180664	-87.859032
-7400.586543	4237.919833	1865.192383	116.306847
-7400.586543	4237.919833	1864.203125	90.818954
-7400.586543	4237.919833	1863.213867	72.539093
-7400.586543	4237.919833	1862.223633	211.199692
-7400.586543	4237.919833	1861.234375	132.437012
-7400.586543	4237.919833	1860.244141	7.781441
-7400.586543	4237.919833	1859.253906	107.606743
-7400.586543	4237.919833	1858.263672	137.358139
-7400.586543	4237.919833	1857.273438	-64.590439
-7400.586543	4237.919833	1856.282227	71.226616
-7400.586543	4237.919833	1855.291992	165.941299
-7400.586543	4237.919833	1854.300781	48.352058
-7400.586543	4237.919833	1853.309570	-8.965821
-7400.586543	4237.919833	1852.317383	-1.227554
-7400.586543	4237.919833	1851.326172	-41.745049
-7400.586543	4237.919833	1850.333984	-12.417483
-7400.586543	4237.919833	1849.342773	166.225677
-7400.586543	4237.919833	1848.350586	9.922768
-7400.586543	4237.919833	1847.357422	-50.040211
-7400.586543	4237.919833	1846.365234	85.012657
-7400.586543	4237.919833	1845.372070	138.107544
-7400.586543	4237.919833	1844.379883	-128.998367
-7400.586543	4237.919833	1843.386719	8.244328
-7400.586543	4237.919833	1842.393555	-27.855038
-7400.586543	4237.919833	1841.399414	308.882385
-7400.586543	4237.919833	1840.406250	133.137085
-7400.586543	4237.919833	1839.412109	82.452232
-7400.586543	4237.919833	1838.417969	190.417633
-7400.586543	4237.919833	1837.423828	60.312672
-7400.586543	4237.919833	1836.429688	120.072968
-7400.586543	4237.919833	1835.434570	105.266792
-7400.586543	4237.919833	1834.440430	172.103531
-7400.586543	4237.919833	1833.445313	181.211792
-7400.586543	4237.919833	1832.450195	-28.277296
-7400.586543	4237.919833	1831.454102	62.400661
-7400.586543	4237.919833	1830.458984	37.764050
-7400.586543	4237.919833	1829.462891	-138.130188
-7400.586543	4237.919833	1828.466797	5.161809
-7400.586543	4237.919833	1827.470703	78.768089
-7400.586543	4237.919833	1826.474609	154.696609
-7400.586543	4237.919833	1825.478516	122.618393
-7400.586543	4237.919833	1824.481445	-58.175110
-7400.586543	4237.919833	1823.484375	-32.764221
-7400.586543	4237.919833	1822.487305	6.970358
-7400.586543	4237.919833	1821.490234	51.433075
-7400.586543	4237.919833	1820.493164	122.188538
-7400.586543	4237.919833	1819.495117	5.998681
-7400.586543	4237.919833	1818.498047	16.757071
-7400.586543	4237.919833	1817.500000	130.433655
-7400.586543	4237.919833	1816.500977	244.014801
-7400.586543	4237.919833	1815.502930	218.662903
-7400.586543	4237.919833	1814.504883	-34.104301
-7400.586543	4237.919833	1813.505859	-25.992929
-7400.586543	4237.919833	1812.506836	92.124290
-7400.586543	4237.919833	1811.507813	-100.822769
-7400.586543	4237.919833	1810.508789	-279.394470
-7400.586543	4237.919833	1809.508789	123.106255
-7400.586543	4237.919833	1808.508789	-17.287878
-7400.586543	4237.919833	1807.508789	100.473129
-7400.586543	4237.919833	1806.508789	-18.450357
-7400.586543	4237.919833	1805.508789	-27.465378
-7400.586543	4237.919833	1804.508789	-7.855905
-7400.586543	4237.919833	1803.507813	186.053375
-7400.586543	4237.919833	1802.506836	86.116776
-7400.586543	4237.919833	1801.505859	45.859879
-7400.586543	4237.919833	1800.504883	34.217468
-7400.586543	4237.919833	1799.502930	-8.497603
-7400.586543	4237.919833	1798.501953	-108.506157
-7400.586543	4237.919833	1797.500000	-24.824327
-7400.586543	4237.919833	1796.498047	-101.036041
-7400.586543	4237.919833	1795.496094	159.001511
-7400.586543	4237.919833	1794.493164	-43.684185
-7400.586543	4237.919833	1793.491211	-74.688515
-7400.586543	4237.919833	1792.488281	101.634071
-7400.586543	4237.919833	1791.485352	-89.144852
-7400.586543	4237.919833	1790.482422	58.433937
-7400.586543	4237.919833	1789.478516	58.214134
-7400.586543	4237.919833	1788.475586	-8.732248
-7400.586543	4237.919833	1787.471680	255.290726
-7400.586543	4237.919833	1786.467773	152.527710
-7400.586543	4237.919833	1785.463867	102.128334
-7400.586543	4237.919833	1784.459961	-91.088814
-7400.586543	4237.919833	1783.455078	-29.681622
-7400.586543	4237.919833	1782.450195	-37.330093
-7400.586543	4237.919833	1781.445313	-40.262505
-7400.586543	4237.919833	1780.440430	-209.701294
-7400.586543	4237.919833	1779.435547	22.702431
-7400.586543	4237.919833	1778.429688	-80.212944
-7400.586543	4237.919833	1777.424805	18.896957
-7400.586543	4237.919833	1776.418945	58.515308
-7400.586543	4237.919833	1775.413086	-146.633316
-7400.586543	4237.919833	1774.406250	73.441681
-7400.586543	4237.919833	1773.400391	-39.091778
-7400.586543	4237.919833	1772.393555	66.823402
-7400.586543	4237.919833	1771.386719	6.475425
-7400.586543	4237.919833	1770.379883	-37.275120
-7400.586543	4237.919833	1769.373047	37.607166
-7400.586543	4237.919833	1768.365234	-82.144157
-7400.586543	4237.919833	1767.358398	-52.433987
-7400.586543	4237.919833	1766.350586	31.770920
-7400.586543	4237.919833	1765.342773	-21.631647
-7400.586543	4237.919833	1764.334961	-105.874832
-7400.586543	4237.919833	1763.326172	-201.983078
-7400.586543	4237.919833	1762.318359	-23.171459
-7400.586543	4237.919833	1761.309570	-140.660995
-7400.586543	4237.919833	1760.300781	-9.392565
-7400.586543	4237.919833	1759.291016	64.935425
-7400.586543	4237.919833	1758.282227	-159.185776
-7400.586543	4237.919833	1757.272461	66.601646
-7400.586543	4237.919833	1756.262695	-20.214346
-7400.586543	4237.919833	1755.252930	-12.361040
-7400.586543	4237.919833	1754.243164	23.848339
-7400.586543	4237.919833	1753.233398	36.347633
-7400.586543	4237.919833	1752.222656	285.347412
-7400.586543	4237.919833	1751.211914	-47.578266
-7400.586543	4237.919833	1750.201172	0.281788
-7400.586543	4237.919833	1749.190430	-32.291893
-7400.586543	4237.919833	1748.179688	136.022232
-7400.586543	4237.919833	1747.167969	49.003910
-7400.586543	4237.919833	1746.156250	120.288887
-7400.586543	4237.919833	1745.144531	73.396957
-7400.586543	4237.919833	1744.132813	198.903564
-7400.586543	4237.919833	1743.121094	166.113663
-7400.586543	4237.919833	1742.108398	3.442596
-7400.586543	4237.919833	1741.095703	34.361221
-7400.586543	4237.919833	1740.083008	100.635422
-7400.586543	4237.919833	1739.070313	133.816254
-7400.586543	4237.919833	1738.057617	141.001617
-7400.586543	4237.919833	1737.043945	112.762978
-7400.586543	4237.919833	1736.030273	13.754939
-7400.586543	4237.919833	1735.016602	103.377174
-7400.586543	4237.919833	1734.002930	171.715897
-7400.586543	4237.919833	1732.989258	145.721558
-7400.586543	4237.919833	1731.974609	124.409828
-7400.586543	4237.919833	1730.959961	44.175667
-7400.586543	4237.919833	1729.945313	-76.103683
-7400.586543	4237.919833	1728.930664	-99.807846
-7400.586543	4237.919833	1727.916016	-1.092794
-7400.586543	4237.919833	1726.900391	146.985703
-7400.586543	4237.919833	1725.885742	47.840752
-7400.586543	4237.919833	1724.870117	40.474785
-7400.586543	4237.919833	1723.853516	-11.628603
-7400.586543	4237.919833	1722.837891	-146.068863
-7400.586543	4237.919833	1721.822266	20.563063
-7400.586543	4237.919833	1720.805664	-59.813164
-7400.586543	4237.919833	1719.789063	22.036608
-7400.586543	4237.919833	1718.772461	-13.704726
-7400.586543	4237.919833	1717.754883	117.393196
-7400.586543	4237.919833	1716.738281	-61.740467
-7400.586543	4237.919833	1715.720703	-59.947445
-7400.586543	4237.919833	1714.703125	146.162781
-7400.586543	4237.919833	1713.685547	-21.221024
-7400.586543	4237.919833	1712.667969	-28.910105
-7400.586543	4237.919833	1711.649414	-83.578720
-7400.586543	4237.919833	1710.630859	-67.843094
-7400.586543	4237.919833	1709.612305	-70.911919
-7400.586543	4237.919833	1708.593750	125.413338
-7400.586543	4237.919833	1707.575195	54.233551
-7400.586543	4237.919833	1706.555664	-14.607080
-7400.586543	4237.919833	1705.536133	-10.758851
-7400.586543	4237.919833	1704.516602	-56.166775
-7400.586543	4237.919833	1703.497070	36.706554
-7400.586543	4237.919833	1702.477539	21.722765
-7400.586543	4237.919833	1701.457031	-19.060179
-7400.586543	4237.919833	1700.437500	136.929184
-7400.586543	4237.919833	1699.416992	7.095557
-7400.586543	4237.919833	1698.395508	-12.663368
-7400.586543	4237.919833	1697.375000	70.581413
-7400.586543	4237.919833	1696.354492	-63.913910
-7400.586543	4237.919833	1695.333008	-8.826830
-7400.586543	4237.919833	1694.311523	76.634979
-7400.586543	4237.919833	1693.290039	-22.767427
-7400.586543	4237.919833	1692.267578	107.053070
-7400.586543	4237.919833	1691.246094	89.487595
-7400.586543	4237.919833	1690.223633	55.534290
-7400.586543	4237.919833	1689.201172	75.338104
-7400.586543	4237.919833	1688.178711	102.124947
-7400.586543	4237.919833	1687.155273	180.280701
-7400.586543	4237.919833	1686.132813	-173.805313
-7400.586543	4237.919833	1685.109375	259.370758
-7400.586543	4237.919833	1684.085938	73.503792
-7400.586543	4237.919833	1683.062500	-18.916662
-7400.586543	4237.919833	1682.039063	152.470078
-7400.586543	4237.919833	1681.014648	67.028336
-7400.586543	4237.919833	1679.990234	238.288956
-7400.586543	4237.919833	1678.965820	99.168289
-7400.586543	4237.919833	1677.941406	333.303375
-7400.586543	4237.919833	1676.916992	273.478729
-7400.586543	4237.919833	1675.891602	80.744186
-7400.586543	4237.919833	1674.866211	-62.974827
-7400.586543	4237.919833	1673.840820	196.576920
-7400.586543	4237.919833	1672.815430	134.423203
-7400.586543	4237.919833	1671.790039	291.290924
-7400.586543	4237.919833	1670.763672	156.890976
-7400.586543	4237.919833	1669.737305	311.327606
-7400.586543	4237.919833	1668.710938	384.191010
-7400.586543	4237.919833	1667.684570	284.731506
-7400.586543	4237.919833	1666.658203	334.267792
-7400.586543	4237.919833	1665.630859	306.965881
-7400.586543	4237.919833	1664.603516	216.838196
-7400.586543	4237.919833	1663.576172	473.356781
-7400.586543	4237.919833	1662.548828	283.195862
-7400.586543	4237.919833	1661.520508	383.766418
-7400.586543	4237.919833	1660.493164	433.145905
-7400.586543	4237.919833	1659.464844	168.676575
-7400.586543	4237.919833	1658.436523	294.743988
-7400.586543	4237.919833	1657.408203	439.341675
-7400.586543	4237.919833	1656.378906	470.029083
-7400.586543	4237.919833	1655.350586	581.999939
-7400.586543	4237.919833	1654.321289	540.638428
-7400.586543	4237.919833	1653.291992	645.560608
-7400.586543	4237.919833	1652.261719	727.211670
-7400.586543	4237.919833	1651.232422	722.957275
-7400.586543	4237.919833	1650.202148	656.035034
-7400.586543	4237.919833	1649.171875	800.255432
-7400.586543	4237.919833	1648.141602	703.175476
-7400.586543	4237.919833	1647.111328	731.360046
-7400.586543	4237.919833	1646.080078	759.519897
-7400.586543	4237.919833	1645.049805	671.758972
-7400.586543	4237.919833	1644.018555	871.425354
-7400.586543	4237.919833	1642.987305	788.293274
-7400.586543	4237.919833	1641.955078	909.067749
-7400.586543	4237.919833	1640.923828	923.242371
-7400.586543	4237.919833	1639.891602	858.656372
-7400.586543	4237.919833	1638.859375	1002.490356
-7400.586543	4237.919833	1637.827148	944.853027
-7400.586543	4237.919833	1636.794922	887.235168
-7400.586543	4237.919833	1635.761719	831.943237
-7400.586543	4237.919833	1634.729492	957.152466
-7400.586543	4237.919833	1633.696289	1170.208984
-7400.586543	4237.919833	1632.662109	992.301575
-7400.586543	4237.919833	1631.628906	1013.337036
-7400.586543	4237.919833	1630.594727	937.254211
-7400.586543	4237.919833	1629.561523	986.031067
-7400.586543	4237.919833	1628.527344	928.472656
-7400.586543	4237.919833	1627.493164	947.187317
-7400.586543	4237.919833	1626.458008	1132.219971
-7400.586543	4237.919833	1625.423828	1307.952759
-7400.586543	4237.919833	1624.388672	1199.570801
-7400.586543	4237.919833	1623.353516	1183.587646
-7400.586543	4237.919833	1622.318359	1038.344604
-7400.586543	4237.919833	1621.282227	1022.397156
-7400.586543	4237.919833	1620.247070	1054.925415
-7400.586543	4237.919833	1619.210938	1175.103760
-7400.586543	4237.919833	1618.174805	1226.043457
-7400.586543	4237.919833	1617.137695	1228.531616
-7400.586543	4237.919833	1616.101563	1120.360352
-7400.586543	4237.919833	1615.064453	1155.153564
-7400.586543	4237.919833	1614.027344	1208.378662
-7400.586543	4237.919833	1612.990234	1217.807739
-7400.586543	4237.919833	1611.953125	1227.239990
-7400.586543	4237.919833	1610.916016	1411.738281
-7400.586543	4237.919833	1609.877930	1342.837036
-7400.586543	4237.919833	1608.839844	1421.332886
-7400.586543	4237.919833	1607.801758	1504.411865
-7400.586543	4237.919833	1606.763672	1527.626099
-7400.586543	4237.919833	1605.724609	1440.377075
-7400.586543	4237.919833	1604.685547	1277.247681
-7400.586543	4237.919833	1603.646484	1392.528442
-7400.586543	4237.919833	1602.607422	1457.179565
-7400.586543	4237.919833	1601.568359	1574.702759
-7400.586543	4237.919833	1600.528320	1556.548218
-7400.586543	4237.919833	1599.489258	1526.927856
-7400.586543	4237.919833	1598.449219	1522.604370
-7400.586543	4237.919833	1597.408203	1456.253174
-7400.586543	4237.919833	1596.368164	1647.230469
-7400.586543	4237.919833	1595.327148	1617.657471
-7400.586543	4237.919833	1594.287109	1698.338623
-7400.586543	4237.919833	1593.246094	1590.740967
-7400.586543	4237.919833	1592.204102	1331.699951
-7400.586543	4237.919833	1591.163086	1421.610840
-7400.586543	4237.919833	1590.121094	1383.005981
-7400.586543	4237.919833	1589.079102	1477.486694
-7400.586543	4237.919833	1588.037109	1432.041504
-7400.586543	4237.919833	1586.995117	1255.926025
-7400.586543	4237.919833	1585.953125	1341.261597
-7400.586543	4237.919833	1584.910156	1277.581055
-7400.586543	4237.919833	1583.867188	1268.948242
-7400.586543	4237.919833	1582.824219	1090.782715
-7400.586543	4237.919833	1581.781250	1208.229370
-7400.586543	4237.919833	1580.737305	1208.832764
-7400.586543	4237.919833	1579.693359	1099.539551
-7400.586543	4237.919833	1578.649414	1303.976318
-7400.586543	4237.919833	1577.605469	1020.782898
-7400.586543	4237.919833	1576.561523	1170.273438
-7400.586543	4237.919833	1575.516602	1058.870483
-7400.586543	4237.919833	1574.472656	1190.042603
-7400.586543	4237.919833	1573.427734	1044.419067
-7400.586543	4237.919833	1572.381836	1342.516846
-7400.586543	4237.919833	1571.336914	1091.798584
-7400.586543	4237.919833	1570.291016	1062.933472
-7400.586543	4237.919833	1569.246094	1020.401672
-7400.586543	4237.919833	1568.200195	968.765076
-7400.586543	4237.919833	1567.153320	647.588745
-7400.586543	4237.919833	1566.107422	826.800659
-7400.586543	4237.919833	1565.060547	884.927917
-7400.586543	4237.919833	1564.013672	666.789734
-7400.586543	4237.919833	1562.966797	868.801636
-7400.586543	4237.919833	1561.919922	701.023621
-7400.586543	4237.919833	1560.872070	784.344666
-7400.586543	4237.919833	1559.825195	888.204102
-7400.586543	4237.919833	1558.777344	659.020935
-7400.586543	4237.919833	1557.729492	801.690430
-7400.586543	4237.919833	1556.680664	745.961060
-7400.586543	4237.919833	1555.632813	708.530640
-7400.586543	4237.919833	1554.583984	682.537231
-7400.586543	4237.919833	1553.535156	631.523376
-7400.586543	4237.919833	1552.486328	382.349915
-7400.586543	4237.919833	1551.436523	595.709717
-7400.586543	4237.919833	1550.387695	781.699890
-7400.586543	4237.919833	1549.337891	607.884460
-7400.586543	4237.919833	1548.288086	864.436707
-7400.586543	4237.919833	1547.238281	640.673523
-7400.586543	4237.919833	1546.187500	653.695190
-7400.586543	4237.919833	1545.136719	605.319397
-7400.586543	4237.919833	1544.086914	493.315704
-7400.586543	4237.919833	1543.035156	410.947418
-7400.586543	4237.919833	1541.984375	615.161133
-7400.586543	4237.919833	1540.933594	528.341492
-7400.586543	4237.919833	1539.881836	332.488495
-7400.586543	4237.919833	1538.830078	548.074768
-7400.586543	4237.919833	1537.778320	445.532379
-7400.586543	4237.919833	1536.725586	701.977722
-7400.586543	4237.919833	1535.673828	460.989044
-7400.586543	4237.919833	1534.621094	410.870880
-7400.586543	4237.919833	1533.568359	546.977478
-7400.586543	4237.919833	1532.515625	485.600372
-7400.586543	4237.919833	1531.461914	465.134338
-7400.586543	4237.919833	1530.409180	451.534210
-7400.586543	4237.919833	1529.355469	245.160629
-7400.586543	4237.919833	1528.301758	254.374435
-7400.586543	4237.919833	1527.247070	261.357819
-7400.586543	4237.919833	1526.193359	234.384521
-7400.586543	4237.919833	1525.138672	273.196381
-7400.586543	4237.919833	1524.083984	182.866013
-7400.586543	4237.919833	1523.029297	185.515930
-7400.586543	4237.919833	1521.974609	43.233452
-7400.586543	4237.919833	1520.918945	-53.652519
-7400.586543	4237.919833	1519.863281	143.925552
-7400.586543	4237.919833	1518.807617	51.685879
-7400.586543	4237.919833	1517.751953	136.088806
-7400.586543	4237.919833	1516.696289	148.090836
-7400.586543	4237.919833	1515.639648	33.426338
-7400.586543	4237.919833	1514.583008	50.064968
-7400.586543	4237.919833	1513.526367	87.105759
-7400.586543	4237.919833	1512.469727	126.446571
-7400.586543	4237.919833	1511.412109	310.512451
-7400.586543	4237.919833	1510.355469	155.505341
-7400.586543	4237.919833	1509.297852	-198.267029
-7400.586543	4237.919833	1508.240234	155.379501
-7400.586543	4237.919833	1507.181641	217.517639
-7400.586543	4237.919833	1506.124023	-22.961662
-7400.586543	4237.919833	1505.065430	107.042732
-7400.586543	4237.919833	1504.006836	99.331924
-7400.586543	4237.919833	1502.948242	-16.667913
-7400.586543	4237.919833	1501.888672	90.855431
-7400.586543	4237.919833	1500.830078	-22.726187
-7400.586543	4237.919833	1499.770508	-118.161697
-7400.586543	4237.919833	1498.710938	-21.786013
-7400.586543	4237.919833	1497.650391	79.115639
-7400.586543	4237.919833	1496.590820	33.492779
-7400.586543	4237.919833	1495.530273	380.162354
-7400.586543	4237.919833	1494.469727	-100.346558
-7400.586543	4237.919833	1493.409180	-222.341202
-7400.586543	4237.919833	1492.348633	-109.936462
-7400.586543	4237.919833	1491.287109	13.741940
-7400.586543	4237.919833	1490.225586	-202.601364
-7400.586543	4237.919833	1489.164063	-76.578316
-7400.586543	4237.919833	1488.102539	141.746948
-7400.586543	4237.919833	1487.041016	33.719479
-7400.586543	4237.919833	1485.978516	-87.707047
-7400.586543	4237.919833	1484.916016	69.977364
-7400.586543	4237.919833	1483.853516	-10.833412
-7400.586543	4237.919833	1482.791016	50.172459
-7400.586543	4237.919833	1481.727539	203.396149
-7400.586543	4237.919833	1480.664063	-331.191681
-7400.586543	4237.919833	1479.600586	-389.041901
-7400.586543	4237.919833	1478.537109	-94.078018
-7400.586543	4237.919833	1477.473633	84.044983
-7400.586543	4237.919833	1476.409180	17.333044
-7400.586543	4237.919833	1475.344727	101.170578
-7400.586543	4237.919833	1474.280273	-117.870850
-7400.586543	4237.919833	1473.215820	176.933670
-7400.586543	4237.919833	1472.151367	-75.634361
-7400.586543	4237.919833	1471.085938	-13.982744
-7400.586543	4237.919833	1470.020508	43.309700
-7400.586543	4237.919833	1468.955078	-161.673752
-7400.586543	4237.919833	1467.888672	142.401443
-7400.586543	4237.919833	1466.823242	322.747864
-7400.586543	4237.919833	1465.756836	109.037392
-7400.586543	4237.919833	1464.690430	88.146873
-7400.586543	4237.919833	1463.624023	197.601959
-7400.586543	4237.919833	1462.556641	275.007050
-7400.586543	4237.919833	1461.490234	79.643356
-7400.586543	4237.919833	1460.422852	291.722443
-7400.586543	4237.919833	1459.355469	101.572021
-7400.586543	4237.919833	1458.287109	309.472504
-7400.586543	4237.919833	1457.219727	445.160645
-7400.586543	4237.919833	1456.151367	288.459839
-7400.586543	4237.919833	1455.083008	476.011932
-7400.586543	4237.919833	1454.014648	459.306427
-7400.586543	4237.919833	1452.945313	447.536102
-7400.586543	4237.919833	1451.876953	365.252502
-7400.586543	4237.919833	1450.807617	571.948608
-7400.586543	4237.919833	1449.738281	520.342041
-7400.586543	4237.919833	1448.668945	553.849976
-7400.586543	4237.919833	1447.598633	302.064117
-7400.586543	4237.919833	1446.528320	697.167664
-7400.586543	4237.919833	1445.458008	249.838516
-7400.586543	4237.919833	1444.387695	388.536835
-7400.586543	4237.919833	1443.317383	648.512695
-7400.586543	4237.919833	1442.246094	707.476257
-7400.586543	4237.919833	1441.174805	706.912231
-7400.586543	4237.919833	1440.103516	605.254211
-7400.586543	4237.919833	1439.032227	521.479980
-7400.586543	4237.919833	1437.960938	572.305420
-7400.586543	4237.919833	1436.888672	509.807190
-7400.586543	4237.919833	1435.816406	734.971558
-7400.586543	4237.919833	1434.744141	359.344482
-7400.586543	4237.919833	1433.670898	329.195190
-7400.586543	4237.919833	1432.598633	450.967102
-7400.586543	4237.919833	1431.525391	462.794281
-7400.586543	4237.919833	1430.452148	272.593262
-7400.586543	4237.919833	1429.378906	302.155151
-7400.586543	4237.919833	1428.304688	349.720184
-7400.586543	4237.919833	1427.231445	211.806213
-7400.586543	4237.919833	1426.157227	110.934731
-7400.586543	4237.919833	1425.083008	153.189835
-7400.586543	4237.919833	1424.007813	270.840393
-7400.586543	4237.919833	1422.933594	61.448528
-7400.586543	4237.919833	1421.858398	109.668167
-7400.586543	4237.919833	1420.783203	162.586990
-7400.586543	4237.919833	1419.708008	154.319305
-7400.586543	4237.919833	1418.631836	-19.735853
-7400.586543	4237.919833	1417.555664	107.992393
-7400.586543	4237.919833	1416.479492	102.206200
-7400.586543	4237.919833	1415.403320	-139.755539
-7400.586543	4237.919833	1414.327148	-129.054947
-7400.586543	4237.919833	1413.250000	-1.179355
-7400.586543	4237.919833	1412.173828	-27.235073
-7400.586543	4237.919833	1411.096680	93.559128
-7400.586543	4237.919833	1410.018555	118.304047
-7400.586543	4237.919833	1408.941406	136.851898
-7400.586543	4237.919833	1407.863281	216.227493
-7400.586543	4237.919833	1406.785156	-59.531288
-7400.586543	4237.919833	1405.707031	38.400707
-7400.586543	4237.919833	1404.628906	118.176750
-7400.586543	4237.919833	1403.549805	2.891141
-7400.586543	4237.919833	1402.470703	-32.250584
-7400.586543	4237.919833	1401.391602	102.668503
-7400.586543	4237.919833	1400.312500	224.700089
-7400.586543	4237.919833	1399.233398	95.299164
-7400.586543	4237.919833	1398.153320	106.610184
-7400.586543	4237.919833	1397.073242	31.305071
-7400.586543	4237.919833	1395.993164	86.473587
-7400.586543	4237.919833	1394.913086	26.397850
-7400.586543	4237.919833	1393.832031	-67.747162
-7400.586543	4237.919833	1392.750977	-2.704853
-7400.586543	4237.919833	1391.669922	-34.346447
-7400.586543	4237.919833	1390.588867	-12.515810
-7400.586543	4237.919833	1389.506836	-205.622665
-7400.586543	4237.919833	1388.425781	11.548582
-7400.586543	4237.919833	1387.343750	-10.510767
-7400.586543	4237.919833	1386.261719	144.668304
-7400.586543	4237.919833	1385.178711	7.681201
-7400.586543	4237.919833	1384.096680	200.718536
-7400.586543	4237.919833	1383.013672	60.333668
-7400.586543	4237.919833	1381.930664	-76.987122
-7400.586543	4237.919833	1380.846680	90.368439
-7400.586543	4237.919833	1379.763672	80.842323
-7400.586543	4237.919833	1378.679688	184.980621
-7400.586543	4237.919833	1377.595703	172.087662
-7400.586543	4237.919833	1376.511719	-13.682462
-7400.586543	4237.919833	1375.427734	83.823380
-7400.586543	4237.919833	1374.342773	28.718807
-7400.586543	4237.919833	1373.257813	-0.960686
-7400.586543	4237.919833	1372.172852	-209.540512
-7400.586543	4237.919833	1371.087891	67.125565
-7400.586543	4237.919833	1370.001953	68.352608
-7400.586543	4237.919833	1368.916992	-131.887589
-7400.586543	4237.919833	1367.831055	-152.930450
-7400.586543	4237.919833	1366.744141	-120.717438
-7400.586543	4237.919833	1365.658203	-7.537930
-7400.586543	4237.919833	1364.571289	10.829687
-7400.586543	4237.919833	1363.484375	80.212227
-7400.586543	4237.919833	1362.397461	74.003937
-7400.586543	4237.919833	1361.310547	135.812943
-7400.586543	4237.919833	1360.222656	176.813248
-7400.586543	4237.919833	1359.135742	62.861107
-7400.586543	4237.919833	1358.047852	91.439651
-7400.586543	4237.919833	1356.958984	40.226505
-7400.586543	4237.919833	1355.871094	-87.629509
-7400.586543	4237.919833	1354.782227	216.762329
-7400.586543	4237.919833	1353.693359	10.495765
-7400.586543	4237.919833	1352.604492	-100.305511
-7400.586543	4237.919833	1351.515625	-1.722877
-7400.586543	4237.919833	1350.425781	23.511950
-7400.586543	4237.919833	1349.335938	-26.435303
-7400.586543	4237.919833	1348.246094	-89.876503
-7400.586543	4237.919833	1347.156250	46.582523
-7400.586543	4237.919833	1346.066406	16.619156
-7400.586543	4237.919833	1344.975586	-15.206044
-7400.586543	4237.919833	1343.884766	67.332863
-7400.586543	4237.919833	1342.793945	-15.153183
-7400.586543	4237.919833	1341.702148	388.447357
-7400.586543	4237.919833	1340.611328	285.571472
-7400.586543	4237.919833	1339.519531	242.950439
-7400.586543	4237.919833	1338.427734	85.424133
-7400.586543	4237.919833	1337.334961	294.058380
-7400.586543	4237.919833	1336.243164	70.628563
-7400.586543	4237.919833	1335.150391	224.939651
-7400.586543	4237.919833	1334.057617	28.651560
-7400.586543	4237.919833	1332.964844	27.252142
-7400.586543	4237.919833	1331.871094	56.505745
-7400.586543	4237.919833	1330.778320	138.725220
-7400.586543	4237.919833	1329.684570	77.435844
-7400.586543	4237.919833	1328.590820	196.430969
-7400.586543	4237.919833	1327.496094	77.297447
-7400.586543	4237.919833	1326.402344	218.068329
-7400.586543	4237.919833	1325.307617	61.427532
-7400.586543	4237.919833	1324.212891	66.027550
-7400.586543	4237.919833	1323.117188	-89.863914
-7400.586543	4237.919833	1322.022461	328.424408
-7400.586543	4237.919833	1320.926758	215.815125
-7400.586543	4237.919833	1319.831055	313.327698
-7400.586543	4237.919833	1318.735352	212.886459
-7400.586543	4237.919833	1317.638672	9.840374
-7400.586543	4237.919833	1316.542969	268.543762
-7400.586543	4237.919833	1315.446289	320.445160
-7400.586543	4237.919833	1314.349609	309.290253
-7400.586543	4237.919833	1313.251953	226.173340
-7400.586543	4237.919833	1312.155273	539.496216
-7400.586543	4237.919833	1311.057617	373.905914
-7400.586543	4237.919833	1309.959961	159.407822
-7400.586543	4237.919833	1308.862305	221.690796
-7400.586543	4237.919833	1307.763672	274.197052
-7400.586543	4237.919833	1306.665039	339.341827
-7400.586543	4237.919833	1305.566406	397.031799
-7400.586543	4237.919833	1304.467773	443.387573
-7400.586543	4237.919833	1303.369141	275.003296
-7400.586543	4237.919833	1302.269531	505.825256
-7400.586543	4237.919833	1301.169922	386.080017
-7400.586543	4237.919833	1300.070313	466.635162
-7400.586543	4237.919833	1298.970703	490.558533
-7400.586543	4237.919833	1297.870117	419.610992
-7400.586543	4237.919833	1296.769531	434.225922
-7400.586543	4237.919833	1295.668945	416.115631
-7400.586543	4237.919833	1294.568359	432.588165
-7400.586543	4237.919833	1293.466797	403.705383
-7400.586543	4237.919833	1292.366211	295.151428
-7400.586543	4237.919833	1291.264648	591.746948
-7400.586543	4237.919833	1290.162109	245.271744
-7400.586543	4237.919833	1289.060547	386.786652
-7400.586543	4237.919833	1287.958008	261.207275
-7400.586543	4237.919833	1286.855469	284.705811
-7400.586543	4237.919833	1285.752930	267.670349
-7400.586543	4237.919833	1284.650391	265.485992
-7400.586543	4237.919833	1283.546875	286.992310
-7400.586543	4237.919833	1282.444336	470.324829
-7400.586543	4237.919833	1281.339844	323.638275
-7400.586543	4237.919833	1280.236328	326.662476
-7400.586543	4237.919833	1279.132813	345.886383
-7400.586543	4237.919833	1278.028320	311.792328
-7400.586543	4237.919833	1276.923828	408.441711
-7400.586543	4237.919833	1275.819336	303.018555
-7400.586543	4237.919833	1274.713867	239.693665
-7400.586543	4237.919833	1273.608398	170.994247
-7400.586543	4237.919833	1272.503906	278.920959
-7400.586543	4237.919833	1271.397461	280.220245
-7400.586543	4237.919833	1270.291992	99.777245
-7400.586543	4237.919833	1269.185547	120.228409
-7400.586543	4237.919833	1268.080078	100.156639
-7400.586543	4237.919833	1266.972656	164.419067
-7400.586543	4237.919833	1265.866211	143.751022
-7400.586543	4237.919833	1264.759766	-39.711609
-7400.586543	4237.919833	1263.652344	10.547020
-7400.586543	4237.919833	1262.544922	-138.744095
-7400.586543	4237.919833	1261.436523	51.242504
-7400.586543	4237.919833	1260.329102	-11.535736
-7400.586543	4237.919833	1259.220703	42.443920
-7400.586543	4237.919833	1258.112305	-195.757614
-7400.586543	4237.919833	1257.003906	-20.261106
-7400.586543	4237.919833	1255.895508	-77.208817
-7400.586543	4237.919833	1254.786133	34.745388
-7400.586543	4237.919833	1253.676758	42.033405
-7400.586543	4237.919833	1252.567383	-15.495809
-7400.586543	4237.919833	1251.458008	133.827988
-7400.586543	4237.919833	1250.347656	63.975018
-7400.586543	4237.919833	1249.237305	83.344872
-7400.586543	4237.919833	1248.126953	136.315796
-7400.586543	4237.919833	1247.016602	85.979897
-7400.586543	4237.919833	1245.905273	-151.392715
-7400.586543	4237.919833	1244.793945	57.083797
-7400.586543	4237.919833	1243.682617	-2.225030
-7400.586543	4237.919833	1242.571289	-48.969276
-7400.586543	4237.919833	1241.459961	66.155083
-7400.586543	4237.919833	1240.347656	32.661411
-7400.586543	4237.919833	1239.235352	118.448135
-7400.586543	4237.919833	1238.123047	-103.290100
-7400.586543	4237.919833	1237.009766	62.297028
-7400.586543	4237.919833	1235.897461	52.716850
-7400.586543	4237.919833	1234.784180	-55.690632
-7400.586543	4237.919833	1233.670898	13.408468
-7400.586543	4237.919833	1232.556641	115.285423
-7400.586543	4237.919833	1231.443359	77.234581
-7400.586543	4237.919833	1230.329102	-128.236969
-7400.586543	4237.919833	1229.214844	146.140137
-7400.586543	4237.919833	1228.099609	156.996628
-7400.586543	4237.919833	1226.985352	-0.806863
-7400.586543	4237.919833	1225.870117	-18.790499
-7400.586543	4237.919833	1224.754883	-45.768909
-7400.586543	4237.919833	1223.639648	44.318760
-7400.586543	4237.919833	1222.523438	-112.784447
-7400.586543	4237.919833	1221.408203	49.939281
-7400.586543	4237.919833	1220.291992	-160.842651
-7400.586543	4237.919833	1219.174805	-109.764679
-7400.586543	4237.919833	1218.058594	16.112867
-7400.586543	4237.919833	1216.941406	-101.136337
-7400.586543	4237.919833	1215.824219	62.766788
-7400.586543	4237.919833	1214.707031	-52.598335
-7400.586543	4237.919833	1213.589844	25.459045
-7400.586543	4237.919833	1212.471680	65.093147
-7400.586543	4237.919833	1211.353516	-59.095676
-7400.586543	4237.919833	1210.235352	-76.683273
-7400.586543	4237.919833	1209.117188	18.042612
-7400.586543	4237.919833	1207.998047	32.016464
-7400.586543	4237.919833	1206.878906	25.405050
-7400.586543	4237.919833	1205.759766	45.470425
-7400.586543	4237.919833	1204.640625	119.400421
-7400.586543	4237.919833	1203.520508	36.666649
-7400.586543	4237.919833	1202.401367	-52.918190
-7400.586543	4237.919833	1201.281250	106.118065
-7400.586543	4237.919833	1200.160156	68.691757
-7400.586543	4237.919833	1199.040039	110.008209
-7400.586543	4237.919833	1197.918945	86.202644
-7400.586543	4237.919833	1196.797852	68.148888
-7400.586543	4237.919833	1195.676758	10.171529
-7400.586543	4237.919833	1194.555664	-29.975176
-7400.586543	4237.919833	1193.433594	-113.006172
-7400.586543	4237.919833	1192.311523	-194.517319
-7400.586543	4237.919833	1191.189453	-71.701614
-7400.586543	4237.919833	1190.066406	53.830475
-7400.586543	4237.919833	1188.944336	-53.717545
-7400.586543	4237.919833	1187.821289	-18.488882
-7400.586543	4237.919833	1186.698242	104.727303
-7400.586543	4237.919833	1185.574219	-50.798641
-7400.586543	4237.919833	1184.451172	81.782410
-7400.586543	4237.919833	1183.327148	18.341806
-7400.586543	4237.919833	1182.203125	46.917603
-7400.586543	4237.919833	1181.078125	211.830887
-7400.586543	4237.919833	1179.954102	154.188705
-7400.586543	4237.919833	1178.829102	138.010773
-7400.586543	4237.919833	1177.704102	-4.056405
-7400.586543	4237.919833	1176.579102	165.270782
-7400.586543	4237.919833	1175.453125	113.062386
-7400.586543	4237.919833	1174.327148	28.522606
-7400.586543	4237.919833	1173.201172	-32.502445
-7400.586543	4237.919833	1172.075195	-43.314095
-7400.586543	4237.919833	1170.949219	-143.473434
-7400.586543	4237.919833	1169.822266	-61.929035
-7400.586543	4237.919833	1168.695313	28.064409
-7400.586543	4237.919833	1167.568359	-1.520980
-7400.586543	4237.919833	1166.440430	86.521461
-7400.586543	4237.919833	1165.313477	61.263130
-7400.586543	4237.919833	1164.185547	-79.488579
-7400.586543	4237.919833	1163.057617	-114.615196
-7400.586543	4237.919833	1161.928711	-60.284149
-7400.586543	4237.919833	1160.800781	-91.978546
-7400.586543	4237.919833	1159.671875	-279.154816
-7400.586543	4237.919833	1158.541992	-277.708069
-7400.586543	4237.919833	1157.413086	-136.240356
-7400.586543	4237.919833	1156.283203	-55.033470
-7400.586543	4237.919833	1155.154297	-31.375908
-7400.586543	4237.919833	1154.023438	-84.830841
-7400.586543	4237.919833	1152.893555	7.754763
-7400.586543	4237.919833	1151.763672	-2.533687
-7400.586543	4237.919833	1150.632813	27.654739
-7400.586543	4237.919833	1149.501953	-92.447876
-7400.586543	4237.919833	1148.370117	-90.166435
-7400.586543	4237.919833	1147.239258	-88.704102
-7400.586543	4237.919833	1146.107422	43.792721
-7400.586543	4237.919833	1144.975586	-37.491631
-7400.586543	4237.919833	1143.843750	-30.657194
-7400.586543	4237.919833	1142.710938	-145.091476
-7400.586543	4237.919833	1141.578125	-133.249680
-7400.586543	4237.919833	1140.445313	-44.388084
-7400.586543	4237.919833	1139.312500	-147.334244
-7400.586543	4237.919833	1138.178711	114.489082
-7400.586543	4237.919833	1137.045898	-74.428329
-7400.586543	4237.919833	1135.912109	17.716824
-7400.586543	4237.919833	1134.777344	-254.967529
-7400.586543	4237.919833	1133.643555	-7.396698
-7400.586543	4237.919833	1132.508789	59.214890
-7400.586543	4237.919833	1131.374023	44.208248
-7400.586543	4237.919833	1130.239258	24.160152
-7400.586543	4237.919833	1129.104492	151.205994
-7400.586543	4237.919833	1127.968750	287.493073
-7400.586543	4237.919833	1126.833008	214.935822
-7400.586543	4237.919833	1125.697266	37.861019
-7400.586543	4237.919833	1124.560547	48.751858
-7400.586543	4237.919833	1123.424805	76.585281
-7400.586543	4237.919833	1122.288086	0.938295
-7400.586543	4237.919833	1121.151367	-65.443436
-7400.586543	4237.919833	1120.013672	208.629211
-7400.586543	4237.919833	1118.876953	65.001625
-7400.586543	4237.919833	1117.739258	-80.634178
-7400.586543	4237.919833	1116.601563	-77.710129
-7400.586543	4237.919833	1115.462891	102.920792
-7400.586543	4237.919833	1114.324219	119.662689
-7400.586543	4237.919833	1113.186523	69.229385
-7400.586543	4237.919833	1112.046875	35.250755
-7400.586543	4237.919833	1110.908203	-51.886032
-7400.586543	4237.919833	1109.769531	-62.433422
-7400.586543	4237.919833	1108.629883	-108.281715
-7400.586543	4237.919833	1107.490234	151.076981
-7400.586543	4237.919833	1106.349609	-146.926407
-7400.586543	4237.919833	1105.209961	102.597450
-7400.586543	4237.919833	1104.069336	40.104401
-7400.586543	4237.919833	1102.928711	-28.143606
-7400.586543	4237.919833	1101.787109	151.947327
-7400.586543	4237.919833	1100.646484	272.732697
-7400.586543	4237.919833	1099.504883	35.242249
-7400.586543	4237.919833	1098.363281	68.976425
-7400.586543	4237.919833	1097.221680	188.537567
-7400.586543	4237.919833	1096.079102	268.278198
-7400.586543	4237.919833	1094.936523	208.044586
-7400.586543	4237.919833	1093.793945	30.315077
-7400.586543	4237.919833	1092.651367	218.463516
-7400.586543	4237.919833	1091.507813	29.189957
-7400.586543	4237.919833	1090.364258	242.985367
-7400.586543	4237.919833	1089.220703	209.959976
-7400.586543	4237.919833	1088.077148	40.763042
-7400.586543	4237.919833	1086.933594	192.762604
-7400.586543	4237.919833	1085.789063	126.351891
-7400.586543	4237.919833	1084.644531	235.608047
-7400.586543	4237.919833	1083.499023	-39.774975
-7400.586543	4237.919833	1082.354492	88.401489
-7400.586543	4237.919833	1081.208984	158.192383
-7400.586543	4237.919833	1080.063477	228.631119
-7400.586543	4237.919833	1078.917969	209.294739
-7400.586543	4237.919833	1077.771484	120.059654
-7400.586543	4237.919833	1076.625977	152.852493
-7400.586543	4237.919833	1075.479492	186.602829
-7400.586543	4237.919833	1074.332031	9.886667
-7400.586543	4237.919833	1073.185547	177.572327
-7400.586543	4237.919833	1072.038086	133.889908
-7400.586543	4237.919833	1070.890625	306.646667
-7400.586543	4237.919833	1069.743164	157.610123
-7400.586543	4237.919833	1068.594727	261.987427
-7400.586543	4237.919833	1067.447266	258.070221
-7400.586543	4237.919833	1066.298828	68.347031
-7400.586543	4237.919833	1065.149414	38.577473
-7400.586543	4237.919833	1064.000977	191.398193
-7400.586543	4237.919833	1062.851563	306.136322
-7400.586543	4237.919833	1061.702148	132.317276
-7400.586543	4237.919833	1060.552734	117.355103
-7400.586543	4237.919833	1059.402344	44.251598
-7400.586543	4237.919833	1058.252930	88.216110
-7400.586543	4237.919833	1057.102539	6.122287
-7400.586543	4237.919833	1055.951172	-59.786800
-7400.586543	4237.919833	1054.800781	226.036362
-7400.586543	4237.919833	1053.649414	107.604813
-7400.586543	4237.919833	1052.498047	25.065430
-7400.586543	4237.919833	1051.346680	2.296199
-7400.586543	4237.919833	1050.194336	143.924606
-7400.586543	4237.919833	1049.042969	112.135307
-7400.586543	4237.919833	1047.890625	171.250565
-7400.586543	4237.919833	1046.738281	309.893036
-7400.586543	4237.919833	1045.584961	66.989883
-7400.586543	4237.919833	1044.431641	264.086731
-7400.586543	4237.919833	1043.278320	85.835022
-7400.586543	4237.919833	1042.125000	88.184128
-7400.586543	4237.919833	1040.971680	15.109732
-7400.586543	4237.919833	1039.817383	226.572006
-7400.586543	4237.919833	1038.663086	193.493759
-7400.586543	4237.919833	1037.508789	286.890747
-7400.586543	4237.919833	1036.353516	252.230865
-7400.586543	4237.919833	1035.198242	255.277878
-7400.586543	4237.919833	1034.042969	231.717468
-7400.586543	4237.919833	1032.887695	105.820313
-7400.586543	4237.919833	1031.732422	344.098297
-7400.586543	4237.919833	1030.576172	250.707565
-7400.586543	4237.919833	1029.419922	322.321350
-7400.586543	4237.919833	1028.263672	222.368484
-7400.586543	4237.919833	1027.106445	124.042183
-7400.586543	4237.919833	1025.949219	182.664200
-7400.586543	4237.919833	1024.792969	-1.689644
-7400.586543	4237.919833	1023.634766	-92.420860
-7400.586543	4237.919833	1022.477539	225.149811
-7400.586543	4237.919833	1021.319336	65.426834
-7400.586543	4237.919833	1020.161133	108.526146
-7400.586543	4237.919833	1019.002930	3.759487
-7400.586543	4237.919833	1017.843750	109.221130
-7400.586543	4237.919833	1016.684570	181.894318
-7400.586543	4237.919833	1015.525391	104.762657
-7400.586543	4237.919833	1014.366211	30.805902
-7400.586543	4237.919833	1013.207031	119.380722
-7400.586543	4237.919833	1012.046875	87.909348
-7400.586543	4237.919833	1010.886719	99.460197
-7400.586543	4237.919833	1009.726563	51.283516
-7400.586543	4237.919833	1008.565430	-118.669258
-7400.586543	4237.919833	1007.404297	145.777832
-7400.586543	4237.919833	1006.243164	140.272507
-7400.586543	4237.919833	1005.082031	284.959564
-7400.586543	4237.919833	1003.920898	170.346100
-7400.586543	4237.919833	1002.758789	50.088470
-7400.586543	4237.919833	1001.596680	99.781784
-7400.586543	4237.919833	1000.433594	214.607712
-7400.586543	4237.919833	999.271484	66.913681
-7400.586543	4237.919833	998.108398	102.405502
-7400.586543	4237.919833	996.945313	82.286827
-7400.586543	4237.919833	995.782227	-117.975250
-7400.586543	4237.919833	994.618164	-26.337873
-7400.586543	4237.919833	993.454102	71.810928
-7400.586543	4237.919833	992.290039	17.875748
-7400.586543	4237.919833	991.125977	-13.565955
-7400.586543	4237.919833	989.960938	102.320541
-7400.586543	4237.919833	988.796875	-109.974144
-7400.586543	4237.919833	987.630859	51.319084
-7400.586543	4237.919833	986.465820	-157.323120
-7400.586543	4237.919833	985.300781	-20.003544
-7400.586543	4237.919833	984.134766	-164.738220
-7400.586543	4237.919833	982.968750	-62.633587
-7400.586543	4237.919833	981.801758	-46.031898
-7400.586543	4237.919833	980.635742	-151.263336
-7400.586543	4237.919833	979.468750	62.868099
-7400.586543	4237.919833	978.301758	-69.921623
-7400.586543	4237.919833	977.133789	65.640358
-7400.586543	4237.919833	975.966797	195.957504
-7400.586543	4237.919833	974.798828	-213.761703
-7400.586543	4237.919833	973.630859	-8.341218
-7400.586543	4237.919833	972.461914	48.140144
-7400.586543	4237.919833	971.293945	-121.161949
-7400.586543	4237.919833	970.125000	-117.135941
-7400.586543	4237.919833	968.956055	136.722458
-7400.586543	4237.919833	967.786133	164.952515
-7400.586543	4237.919833	966.617188	64.026512
-7400.586543	4237.919833	965.447266	2.424943
-7400.586543	4237.919833	964.276367	100.956665
-7400.586543	4237.919833	963.106445	38.955460
-7400.586543	4237.919833	961.935547	211.303040
-7400.586543	4237.919833	960.764648	-52.304729
-7400.586543	4237.919833	959.593750	-99.675102
-7400.586543	4237.919833	958.422852	286.151245
-7400.586543	4237.919833	957.250977	152.385239
-7400.586543	4237.919833	956.079102	98.633011
-7400.586543	4237.919833	954.907227	63.741581
-7400.586543	4237.919833	953.734375	125.664948
-7400.586543	4237.919833	952.562500	-33.300720
-7400.586543	4237.919833	951.389648	-16.843527
-7400.586543	4237.919833	950.215820	-65.786438
-7400.586543	4237.919833	949.042969	-222.605591
-7400.586543	4237.919833	947.869141	73.191406
-7400.586543	4237.919833	946.695313	-86.596687
-7400.586543	4237.919833	945.521484	-24.239079
-7400.586543	4237.919833	944.346680	-95.908913
-7400.586543	4237.919833	943.172852	-48.799889
-7400.586543	4237.919833	941.998047	-84.588768
-7400.586543	4237.919833	940.822266	-14.205931
-7400.586543	4237.919833	939.647461	-52.361565
-7400.586543	4237.919833	938.471680	-126.713989
-7400.586543	4237.919833	937.295898	49.382362
-7400.586543	4237.919833	936.119141	109.214149
-7400.586543	4237.919833	934.943359	-96.968697
-7400.586543	4237.919833	933.766602	-24.294390
-7400.586543	4237.919833	932.589844	94.980370
-7400.586543	4237.919833	931.413086	191.076614
-7400.586543	4237.919833	930.235352	2.646116
-7400.586543	4237.919833	929.057617	80.555290
-7400.586543	4237.919833	927.879883	-38.020748
-7400.586543	4237.919833	926.702148	26.875353
-7400.586543	4237.919833	925.523438	81.414825
-7400.586543	4237.919833	924.344727	115.255142
-7400.586543	4237.919833	923.166016	-57.526222
-7400.586543	4237.919833	921.987305	-116.663345
-7400.586543	4237.919833	920.807617	-33.816139
-7400.586543	4237.919833	919.627930	-31.535061
-7400.586543	4237.919833	919.497070	-15.285866
-7400.586543	4237.919833	918.331055	-58.986610
-7400.586543	4237.919833	917.165039	-133.644989
-7400.586543	4237.919833	915.999023	157.956070
-7400.586543	4237.919833	914.833008	-27.637257
-7400.586543	4237.919833	913.666016	26.597610
-7400.586543	4237.919833	912.499023	235.450119
-7400.586543	4237.919833	911.332031	24.130510
-7400.586543	4237.919833	910.165039	-50.561165
-7400.586543	4237.919833	908.997070	-29.923679
-7400.586543	4237.919833	907.830078	11.291669
-7400.586543	4237.919833	906.661133	-24.773939
-7400.586543	4237.919833	905.493164	-1.630329
-7400.586543	4237.919833	904.325195	54.950058
-7400.586543	4237.919833	903.156250	-4.313095
-7400.586543	4237.919833	901.987305	-19.827505
-7400.586543	4237.919833	900.818359	-99.661301
-7400.586543	4237.919833	899.648438	62.279167
-7400.586543	4237.919833	898.478516	82.714149
-7400.586543	4237.919833	897.308594	234.238571
-7400.586543	4237.919833	896.138672	-20.421753
-7400.586543	4237.919833	894.968750	48.798801
-7400.586543	4237.919833	893.797852	115.409821
-7400.586543	4237.919833	892.626953	-131.406494
-7400.586543	4237.919833	891.456055	84.141052
-7400.586543	4237.919833	890.284180	68.497551
-7400.586543	4237.919833	889.113281	-78.080147
-7400.586543	4237.919833	887.941406	175.784256
-7400.586543	4237.919833	886.768555	-19.536058
-7400.586543	4237.919833	885.596680	21.243156
-7400.586543	4237.919833	884.423828	59.427799
-7400.586543	4237.919833	883.250977	133.488190
-7400.586543	4237.919833	882.078125	61.357113
-7400.586543	4237.919833	880.905273	-64.591286
-7400.586543	4237.919833	879.731445	114.494194
-7400.586543	4237.919833	878.557617	88.497955
-7400.586543	4237.919833	877.383789	52.253139
-7400.586543	4237.919833	876.209961	41.624119
-7400.586543	4237.919833	875.035156	20.746197
-7400.586543	4237.919833	873.860352	4.984274
-7400.586543	4237.919833	872.685547	35.294506
-7400.586543	4237.919833	871.510742	121.884995
-7400.586543	4237.919833	870.334961	136.783554
-7400.586543	4237.919833	869.159180	149.106079
-7400.586543	4237.919833	867.983398	158.853638
-7400.586543	4237.919833	866.807617	96.985260
-7400.586543	4237.919833	865.630859	-67.135353
-7400.586543	4237.919833	864.454102	24.414343
-7400.586543	4237.919833	863.277344	-139.646851
-7400.586543	4237.919833	862.100586	89.833458
-7400.586543	4237.919833	860.922852	-25.659031
-7400.586543	4237.919833	859.745117	-31.290636
-7400.586543	4237.919833	858.567383	-185.035934
-7400.586543	4237.919833	857.389648	-91.088280
-7400.586543	4237.919833	856.210938	69.174698
-7400.586543	4237.919833	855.032227	66.036888
-7400.586543	4237.919833	853.853516	-41.721439
-7400.586543	4237.919833	852.674805	57.178028
-7400.586543	4237.919833	851.495117	56.561684
-7400.586543	4237.919833	850.315430	155.378464
-7400.586543	4237.919833	849.135742	108.830498
-7400.586543	4237.919833	847.956055	161.694122
-7400.586543	4237.919833	846.775391	196.688217
-7400.586543	4237.919833	845.595703	221.463715
-7400.586543	4237.919833	844.415039	292.068787
-7400.586543	4237.919833	843.233398	-29.560101
-7400.586543	4237.919833	842.052734	33.405689
-7400.586543	4237.919833	840.871094	37.783817
-7400.586543	4237.919833	839.689453	52.328899
-7400.586543	4237.919833	838.506836	278.061493
-7400.586543	4237.919833	837.325195	-71.279510
-7400.586543	4237.919833	836.142578	146.729858
-7400.586543	4237.919833	834.959961	95.073723
-7400.586543	4237.919833	833.777344	-76.073219
-7400.586543	4237.919833	832.593750	-38.715893
-7400.586543	4237.919833	831.410156	69.774368
-7400.586543	4237.919833	830.226563	20.666956
-7400.586543	4237.919833	829.042969	-122.429871
-7400.586543	4237.919833	827.858398	-85.145142
-7400.586543	4237.919833	826.673828	145.103943
-7400.586543	4237.919833	825.489258	-3.046085
-7400.586543	4237.919833	824.304688	34.149738
-7400.586543	4237.919833	823.120117	48.475407
-7400.586543	4237.919833	821.934570	-26.023388
-7400.586543	4237.919833	820.749023	168.392410
-7400.586543	4237.919833	819.562500	243.510666
-7400.586543	4237.919833	818.376953	-41.491055
-7400.586543	4237.919833	817.190430	127.412354
-7400.586543	4237.919833	816.003906	-185.359375
-7400.586543	4237.919833	814.817383	-95.085754
-7400.586543	4237.919833	813.629883	45.807091
-7400.586543	4237.919833	812.442383	-10.955413
-7400.586543	4237.919833	811.254883	124.765160
-7400.586543	4237.919833	810.067383	227.495895
-7400.586543	4237.919833	808.878906	-41.967705
-7400.586543	4237.919833	807.690430	-141.758606
-7400.586543	4237.919833	806.501953	-82.105583
-7400.586543	4237.919833	805.313477	-4.784307
-7400.586543	4237.919833	804.124023	47.193008
-7400.586543	4237.919833	802.934570	71.312584
-7400.586543	4237.919833	801.745117	42.306561
-7400.586543	4237.919833	800.555664	38.573063
-7400.586543	4237.919833	799.365234	158.662292
-7400.586543	4237.919833	798.175781	172.554962
-7400.586543	4237.919833	796.985352	19.686687
-7400.586543	4237.919833	795.793945	-44.735855
-7400.586543	4237.919833	794.603516	-149.557083
-7400.586543	4237.919833	793.412109	-183.662781
-7400.586543	4237.919833	792.220703	-33.507038
-7400.586543	4237.919833	791.028320	-44.950951
-7400.586543	4237.919833	789.836914	-86.691360
-7400.586543	4237.919833	788.644531	-209.161072
-7400.586543	4237.919833	787.452148	-39.035812
-7400.586543	4237.919833	786.258789	-17.778336
-7400.586543	4237.919833	785.066406	-213.366608
-7400.586543	4237.919833	783.873047	-13.169125
-7400.586543	4237.919833	782.679688	48.318100
-7400.586543	4237.919833	781.485352	-134.636322
-7400.586543	4237.919833	780.291992	88.017136
-7400.586543	4237.919833	779.097656	338.255493
-7400.586543	4237.919833	777.903320	-26.013887
-7400.586543	4237.919833	776.708008	-143.450211
-7400.586543	4237.919833	775.512695	-19.242731
-7400.586543	4237.919833	774.318359	1.714271
-7400.586543	4237.919833	773.122070	75.468201
-7400.586543	4237.919833	771.926758	41.004059
-7400.586543	4237.919833	770.730469	26.645229
-7400.586543	4237.919833	769.534180	70.091209
-7400.586543	4237.919833	768.337891	-67.500206
-7400.586543	4237.919833	767.141602	-74.375526
-7400.586543	4237.919833	765.944336	127.276497
-7400.586543	4237.919833	764.747070	-22.892393
-7400.586543	4237.919833	763.549805	196.184753
-7400.586543	4237.919833	762.351563	71.113075
-7400.586543	4237.919833	761.154297	3.805043
-7400.586543	4237.919833	759.956055	202.564072
-7400.586543	4237.919833	758.757813	72.453156
-7400.586543	4237.919833	757.558594	123.013809
-7400.586543	4237.919833	756.359375	38.060047
-7400.586543	4237.919833	755.160156	50.918591
-7400.586543	4237.919833	753.960938	224.216949
-7400.586543	4237.919833	752.761719	282.087494
-7400.586543	4237.919833	751.561523	-121.285797
-7400.586543	4237.919833	750.361328	116.986420
-7400.586543	4237.919833	749.160156	49.465008
-7400.586543	4237.919833	747.959961	-65.657639
-7400.586543	4237.919833	746.758789	27.091192
-7400.586543	4237.919833	745.557617	-73.030876
-7400.586543	4237.919833	744.356445	-95.547699
-7400.586543	4237.919833	743.154297	-20.484493
-7400.586543	4237.919833	741.952148	-60.597218
-7400.586543	4237.919833	740.750000	111.915474
-7400.586543	4237.919833	739.547852	186.768982
-7400.586543	4237.919833	738.344727	-178.572754
-7400.586543	4237.919833	737.142578	58.739471
-7400.586543	4237.919833	735.939453	138.433685
-7400.586543	4237.919833	734.735352	25.617804
-7400.586543	4237.919833	733.532227	20.248653
-7400.586543	4237.919833	732.328125	89.779678
-7400.586543	4237.919833	731.124023	94.302887
-7400.586543	4237.919833	729.918945	223.631622
-7400.586543	4237.919833	728.714844	120.686844
-7400.586543	4237.919833	727.509766	107.595596
-7400.586543	4237.919833	726.303711	201.769501
-7400.586543	4237.919833	725.098633	201.052612
-7400.586543	4237.919833	723.892578	212.760254
-7400.586543	4237.919833	722.686523	39.868477
-7400.586543	4237.919833	721.480469	98.887688
-7400.586543	4237.919833	720.274414	185.257004
-7400.586543	4237.919833	719.067383	117.016037
-7400.586543	4237.919833	717.860352	68.691818
-7400.586543	4237.919833	716.653320	102.552589
-7400.586543	4237.919833	715.445313	76.570480
-7400.586543	4237.919833	714.238281	-116.294472
-7400.586543	4237.919833	713.030273	-119.909225
-7400.586543	4237.919833	711.821289	-24.003674
-7400.586543	4237.919833	710.613281	-127.282570
-7400.586543	4237.919833	709.404297	-71.326950
-7400.586543	4237.919833	708.195313	-5.493189
-7400.586543	4237.919833	706.986328	202.028030
-7400.586543	4237.919833	705.776367	-107.803123
-7400.586543	4237.919833	704.566406	-19.783300
-7400.586543	4237.919833	703.356445	55.722031
-7400.586543	4237.919833	702.146484	46.652119
-7400.586543	4237.919833	700.935547	-22.095476
-7400.586543	4237.919833	699.724609	209.696457
-7400.586543	4237.919833	698.513672	-23.068951
-7400.586543	4237.919833	697.302734	-79.500252
-7400.586543	4237.919833	696.090820	20.430864
-7400.586543	4237.919833	694.878906	3.616609
-7400.586543	4237.919833	693.666992	76.088104
-7400.586543	4237.919833	692.455078	19.470247
-7400.586543	4237.919833	691.242188	121.562706
-7400.586543	4237.919833	690.029297	114.447372
-7400.586543	4237.919833	688.816406	102.322418
-7400.586543	4237.919833	687.602539	219.043106
-7400.586543	4237.919833	686.389648	261.315704
-7400.586543	4237.919833	685.175781	330.770691
-7400.586543	4237.919833	683.960938	286.187225
-7400.586543	4237.919833	682.747070	263.861755
-7400.586543	4237.919833	681.532227	451.964539
-7400.586543	4237.919833	680.317383	290.867035
-7400.586543	4237.919833	679.102539	231.263626
-7400.586543	4237.919833	677.886719	443.836487
-7400.586543	4237.919833	676.670898	426.175964
-7400.586543	4237.919833	675.455078	378.786041
-7400.586543	4237.919833	674.239258	192.871933
-7400.586543	4237.919833	673.022461	363.022980
-7400.586543	4237.919833	671.805664	429.225220
-7400.586543	4237.919833	670.588867	193.825562
-7400.586543	4237.919833	669.372070	334.057556
-7400.586543	4237.919833	668.154297	530.994812
-7400.586543	4237.919833	666.936523	169.594391
-7400.586543	4237.919833	665.718750	400.949280
-7400.586543	4237.919833	664.500977	370.453278
-7400.586543	4237.919833	663.282227	423.839172
-7400.586543	4237.919833	662.063477	319.209656
-7400.586543	4237.919833	660.844727	106.010414
-7400.586543	4237.919833	659.625000	203.663544
-7400.586543	4237.919833	658.405273	424.536652
-7400.586543	4237.919833	657.185547	226.089096
-7400.586543	4237.919833	655.965820	338.293976
-7400.586543	4237.919833	654.745117	235.968796
-7400.586543	4237.919833	653.525391	165.675110
-7400.586543	4237.919833	652.303711	322.013062
-7400.586543	4237.919833	651.083008	204.830704
-7400.586543	4237.919833	649.861328	378.235321
-7400.586543	4237.919833	648.640625	371.789734
-7400.586543	4237.919833	647.417969	409.601593
-7400.586543	4237.919833	646.196289	184.019531
-7400.586543	4237.919833	644.973633	359.552887
-7400.586543	4237.919833	643.750977	360.305359
-7400.586543	4237.919833	642.528320	183.928009
-7400.586543	4237.919833	641.305664	44.467411
-7400.586543	4237.919833	640.082031	244.284912
-7400.586543	4237.919833	638.858398	225.219788
-7400.586543	4237.919833	637.634766	184.003265
-7400.586543	4237.919833	636.410156	184.527924
-7400.586543	4237.919833	635.185547	239.051147
-7400.586543	4237.919833	633.960938	234.571838
-7400.586543	4237.919833	632.736328	200.590866
-7400.586543	4237.919833	631.510742	218.134583
-7400.586543	4237.919833	630.285156	51.561180
-7400.586543	4237.919833	629.059570	69.056183
-7400.586543	4237.919833	627.833984	194.451599
-7400.586543	4237.919833	626.607422	211.835327
-7400.586543	4237.919833	625.380859	20.740576
-7400.586543	4237.919833	624.154297	-45.269112
-7400.586543	4237.919833	622.927734	52.946980
-7400.586543	4237.919833	621.700195	153.538269
-7400.586543	4237.919833	620.472656	-10.556547
-7400.586543	4237.919833	619.245117	-108.470116
-7400.586543	4237.919833	618.016602	82.620834
-7400.586543	4237.919833	616.788086	26.298689
-7400.586543	4237.919833	615.559570	-91.225365
-7400.586543	4237.919833	614.331055	45.821404
-7400.586543	4237.919833	613.101563	-8.082421
-7400.586543	4237.919833	611.872070	-44.859158
-7400.586543	4237.919833	610.642578	-123.221352
-7400.586543	4237.919833	609.413086	-96.412758
-7400.586543	4237.919833	608.182617	-45.186192
-7400.586543	4237.919833	606.952148	223.556702
-7400.586543	4237.919833	605.721680	98.703079
-7400.586543	4237.919833	604.491211	115.606941
-7400.586543	4237.919833	603.259766	-87.369217
-7400.586543	4237.919833	602.028320	-82.668892
-7400.586543	4237.919833	600.796875	73.414505
-7400.586543	4237.919833	599.564453	131.768936
-7400.586543	4237.919833	598.332031	143.719543
-7400.586543	4237.919833	597.099609	99.535500
-7400.586543	4237.919833	595.867188	-76.377266
-7400.586543	4237.919833	594.633789	172.207184
-7400.586543	4237.919833	593.400391	106.093567
-7400.586543	4237.919833	592.166992	-98.964455
-7400.586543	4237.919833	590.933594	-60.163410
-7400.586543	4237.919833	589.699219	12.745225
-7400.586543	4237.919833	588.464844	-31.327309
-7400.586543	4237.919833	587.230469	46.435223
-7400.586543	4237.919833	585.995117	63.283398
-7400.586543	4237.919833	584.760742	-68.396660
-7400.586543	4237.919833	583.525391	123.787025
-7400.586543	4237.919833	582.289063	220.976028
-7400.586543	4237.919833	581.053711	179.436310
-7400.586543	4237.919833	579.817383	-22.645077
-7400.586543	4237.919833	578.581055	-32.450562
-7400.586543	4237.919833	577.343750	42.887871
-7400.586543	4237.919833	576.107422	140.109741
-7400.586543	4237.919833	574.870117	215.437500
-7400.586543	4237.919833	573.631836	-68.939293
-7400.586543	4237.919833	572.394531	-83.439423
-7400.586543	4237.919833	571.156250	159.610947
-7400.586543	4237.919833	569.917969	152.424805
-7400.586543	4237.919833	568.679688	-19.844431
-7400.586543	4237.919833	567.440430	72.628639
-7400.586543	4237.919833	566.202148	-94.610199
-7400.586543	4237.919833	564.961914	73.156471
-7400.586543	4237.919833	563.722656	-64.804161
-7400.586543	4237.919833	562.482422	-59.541317
-7400.586543	4237.919833	561.243164	64.611603
-7400.586543	4237.919833	560.001953	125.717255
-7400.586543	4237.919833	558.761719	65.646866
-7400.586543	4237.919833	557.520508	194.705093
-7400.586543	4237.919833	556.279297	105.685661
-7400.586543	4237.919833	555.038086	-9.881981
-7400.586543	4237.919833	553.795898	90.230492
-7400.586543	4237.919833	552.554688	-168.023880
-7400.586543	4237.919833	551.311523	324.427429
-7400.586543	4237.919833	550.069336	37.324707
-7400.586543	4237.919833	548.826172	-19.679983
-7400.586543	4237.919833	547.583984	124.238968
-7400.586543	4237.919833	546.339844	-147.899887
-7400.586543	4237.919833	545.096680	211.386124
-7400.586543	4237.919833	543.852539	-152.373505
-7400.586543	4237.919833	542.608398	-283.817352
-7400.586543	4237.919833	541.364258	225.368149
-7400.586543	4237.919833	540.119141	9.497850
-7400.586543	4237.919833	538.875000	64.395370
-7400.586543	4237.919833	537.628906	49.310108
-7400.586543	4237.919833	536.383789	24.670433
-7400.586543	4237.919833	535.137695	84.638565
-7400.586543	4237.919833	533.892578	-43.596359
-7400.586543	4237.919833	532.645508	69.651428
-7400.586543	4237.919833	531.399414	-63.147762
-7400.586543	4237.919833	530.152344	-48.639767
-7400.586543	4237.919833	528.905273	-9.912498
-7400.586543	4237.919833	527.658203	151.880539
-7400.586543	4237.919833	526.410156	-125.038940
-7400.586543	4237.919833	525.163086	152.622269
-7400.586543	4237.919833	523.914063	30.266356
-7400.586543	4237.919833	522.666016	-101.555443
-7400.586543	4237.919833	521.416992	-189.849350
-7400.586543	4237.919833	520.167969	13.398397
-7400.586543	4237.919833	518.918945	43.330826
-7400.586543	4237.919833	517.669922	-66.239143
-7400.586543	4237.919833	516.419922	79.459427
-7400.586543	4237.919833	515.169922	150.631073
-7400.586543	4237.919833	513.919922	142.516266
-7400.586543	4237.919833	512.668945	-48.251629
-7400.586543	4237.919833	511.417969	169.960129
-7400.586543	4237.919833	510.166992	63.667206
-7400.586543	4237.919833	508.916016	-76.097229
-7400.586543	4237.919833	507.664063	-119.551270
-7400.586543	4237.919833	506.412109	142.257446
-7400.586543	4237.919833	505.160156	-95.515091
-7400.586543	4237.919833	503.907227	77.590797
-7400.586543	4237.919833	502.655273	-104.574860
-7400.586543	4237.919833	501.402344	18.320723
-7400.586543	4237.919833	500.148438	59.705929
-7400.586543	4237.919833	498.895508	245.169098
-7400.586543	4237.919833	497.641602	90.056046
-7400.586543	4237.919833	496.387695	-28.878759
-7400.586543	4237.919833	495.132813	118.530495
-7400.586543	4237.919833	493.878906	43.065166
-7400.586543	4237.919833	492.624023	-1.072064
-7400.586543	4237.919833	491.368164	46.003429
-7400.586543	4237.919833	490.113281	121.943092
-7400.586543	4237.919833	488.857422	85.410789
-7400.586543	4237.919833	487.601563	238.210144
-7400.586543	4237.919833	486.344727	209.120087
-7400.586543	4237.919833	485.088867	31.766247
-7400.586543	4237.919833	483.832031	347.611572
-7400.586543	4237.919833	482.575195	220.812195
-7400.586543	4237.919833	481.317383	347.763031
-7400.586543	4237.919833	480.059570	61.037647
-7400.586543	4237.919833	478.801758	216.912415
-7400.586543	4237.919833	477.543945	308.298309
-7400.586543	4237.919833	476.285156	282.654388
-7400.586543	4237.919833	475.027344	371.834808
-7400.586543	4237.919833	473.767578	458.709534
-7400.586543	4237.919833	472.508789	306.804443
-7400.586543	4237.919833	471.249023	298.357941
-7400.586543	4237.919833	469.989258	440.433533
-7400.586543	4237.919833	468.729492	396.367554
-7400.586543	4237.919833	467.469727	163.890656
-7400.586543	4237.919833	466.208984	382.554688
-7400.586543	4237.919833	464.948242	455.706055
-7400.586543	4237.919833	463.686523	381.051544
-7400.586543	4237.919833	462.425781	347.043091
-7400.586543	4237.919833	461.164063	348.889191
-7400.586543	4237.919833	459.901367	393.710846
-7400.586543	4237.919833	458.639648	438.578033
-7400.586543	4237.919833	457.376953	421.549347
-7400.586543	4237.919833	456.114258	545.111572
-7400.586543	4237.919833	454.851563	580.562073
-7400.586543	4237.919833	453.587891	482.719208
-7400.586543	4237.919833	452.324219	373.054016
-7400.586543	4237.919833	451.060547	622.809326
-7400.586543	4237.919833	449.796875	570.313599
-7400.586543	4237.919833	448.532227	441.738373
-7400.586543	4237.919833	447.267578	360.788757
-7400.586543	4237.919833	446.002930	427.289185
-7400.586543	4237.919833	444.737305	508.015747
-7400.586543	4237.919833	443.471680	545.906738
-7400.586543	4237.919833	442.206055	735.825684
-7400.586543	4237.919833	440.940430	764.077148
-7400.586543	4237.919833	439.673828	666.387573
-7400.586543	4237.919833	438.407227	677.911682
-7400.586543	4237.919833	437.140625	703.602356
-7400.586543	4237.919833	435.873047	589.158203
-7400.586543	4237.919833	434.605469	742.826721
-7400.586543	4237.919833	433.337891	718.376709
-7400.586543	4237.919833	432.070313	857.486816
-7400.586543	4237.919833	430.801758	846.999268
-7400.586543	4237.919833	429.533203	663.281921
-7400.586543	4237.919833	428.264648	970.176086
-7400.586543	4237.919833	426.996094	1030.280518
-7400.586543	4237.919833	425.726563	1021.453369
-7400.586543	4237.919833	424.457031	659.445007
-7400.586543	4237.919833	423.186523	652.637695
-7400.586543	4237.919833	421.916992	830.289001
-7400.586543	4237.919833	420.646484	1021.810303
-7400.586543	4237.919833	419.375977	798.760864
-7400.586543	4237.919833	418.104492	980.167542
-7400.586543	4237.919833	416.833008	1031.056763
-7400.586543	4237.919833	415.561523	733.878723
-7400.586543	4237.919833	414.290039	833.771606
-7400.586543	4237.919833	413.017578	975.802673
-7400.586543	4237.919833	411.746094	793.528503
-7400.586543	4237.919833	410.472656	885.059143
-7400.586543	4237.919833	409.200195	971.381714
-7400.586543	4237.919833	407.926758	981.605164
-7400.586543	4237.919833	406.653320	1005.505188
-7400.586543	4237.919833	405.379883	1123.328613
-7400.586543	4237.919833	404.105469	969.070129
-7400.586543	4237.919833	402.831055	1031.453613
-7400.586543	4237.919833	401.556641	1062.538330
-7400.586543	4237.919833	400.282227	1116.578979
-7400.586543	4237.919833	399.006836	1106.255005
-7400.586543	4237.919833	397.731445	1175.433594
-7400.586543	4237.919833	396.456055	911.436340
-7400.586543	4237.919833	395.179688	1000.382080
-7400.586543	4237.919833	393.903320	1081.443604
-7400.586543	4237.919833	392.626953	1149.881714
-7400.586543	4237.919833	391.350586	1191.537476
-7400.586543	4237.919833	390.073242	1267.618408
-7400.586543	4237.919833	388.795898	1053.136108
-7400.586543	4237.919833	387.518555	1007.296143
-7400.586543	4237.919833	386.240234	1136.999390
-7400.586543	4237.919833	384.961914	1049.139526
-7400.586543	4237.919833	383.683594	1108.466309
-7400.586543	4237.919833	382.405273	1216.058350
-7400.586543	4237.919833	381.125977	1256.601563
-7400.586543	4237.919833	379.846680	1119.613770
-7400.586543	4237.919833	378.567383	1134.239136
-7400.586543	4237.919833	377.287109	1222.766724
-7400.586543	4237.919833	376.006836	1161.917236
-7400.586543	4237.919833	374.726563	1191.337524
-7400.586543	4237.919833	373.446289	1306.223877
-7400.586543	4237.919833	372.165039	1048.598389
-7400.586543	4237.919833	370.883789	1106.476807
-7400.586543	4237.919833	369.602539	996.131531
-7400.586543	4237.919833	368.320313	1200.959961
-7400.586543	4237.919833	367.039063	981.788391
-7400.586543	4237.919833	365.755859	1112.743408
-7400.586543	4237.919833	364.473633	1091.810425
-7400.586543	4237.919833	363.190430	1087.772583
-7400.586543	4237.919833	361.907227	981.049011
-7400.586543	4237.919833	360.624023	1076.284058
-7400.586543	4237.919833	359.340820	951.571045
-7400.586543	4237.919833	358.056641	944.252625
-7400.586543	4237.919833	356.772461	946.495422
-7400.586543	4237.919833	355.487305	890.290344
-7400.586543	4237.919833	354.202148	1040.156860
-7400.586543	4237.919833	352.916992	958.254272
-7400.586543	4237.919833	351.631836	988.614746
-7400.586543	4237.919833	350.346680	738.091980
-7400.586543	4237.919833	349.060547	894.348694
-7400.586543	4237.919833	347.774414	685.460388
-7400.586543	4237.919833	346.487305	754.420349
-7400.586543	4237.919833	345.200195	654.602539
-7400.586543	4237.919833	343.913086	633.732544
-7400.586543	4237.919833	342.625977	516.459351
-7400.586543	4237.919833	341.338867	452.249573
-7400.586543	4237.919833	340.050781	499.298615
-7400.586543	4237.919833	338.762695	781.245483
-7400.586543	4237.919833	337.473633	756.247742
-7400.586543	4237.919833	336.184570	545.831177
-7400.586543	4237.919833	334.895508	660.987549
-7400.586543	4237.919833	333.606445	315.304565
-7400.586543	4237.919833	332.317383	371.881653
-7400.586543	4237.919833	331.027344	613.433716
-7400.586543	4237.919833	329.736328	377.687408
-7400.586543	4237.919833	328.446289	298.952850
-7400.586543	4237.919833	327.155273	290.633148
-7400.586543	4237.919833	325.864258	243.169220
-7400.586543	4237.919833	324.573242	172.782303
-7400.586543	4237.919833	323.281250	100.232368
-7400.586543	4237.919833	321.989258	111.641014
-7400.586543	4237.919833	320.697266	25.288418
-7400.586543	4237.919833	319.405273	106.405724
-7400.586543	4237.919833	318.112305	-61.806229
-7400.586543	4237.919833	316.819336	202.334473
-7400.586543	4237.919833	315.526367	-120.167641
-7400.586543	4237.919833	314.232422	-10.817888
-7400.586543	4237.919833	312.938477	-85.907928
-7400.586543	4237.919833	311.644531	12.449182
-7400.586543	4237.919833	310.349609	-101.839104
-7400.586543	4237.919833	309.054688	-207.951599
-7400.586543	4237.919833	307.759766	-4.111474
-7400.586543	4237.919833	306.464844	47.261261
-7400.586543	4237.919833	305.168945	-79.574417
-7400.586543	4237.919833	303.873047	-154.723022
-7400.586543	4237.919833	302.577148	88.482079
-7400.586543	4237.919833	301.281250	218.166840
-7400.586543	4237.919833	299.984375	319.891479
