#X		#Y		#Wave		#Intensity
-7419.487660	4072.642833	1999.946289	7.505451
-7419.487660	4072.642833	1998.981445	28.211813
-7419.487660	4072.642833	1998.017578	-49.168266
-7419.487660	4072.642833	1997.052734	4.952345
-7419.487660	4072.642833	1996.088867	-10.190901
-7419.487660	4072.642833	1995.124023	-10.340284
-7419.487660	4072.642833	1994.159180	26.783266
-7419.487660	4072.642833	1993.193359	-54.848843
-7419.487660	4072.642833	1992.228516	-39.776348
-7419.487660	4072.642833	1991.262695	89.268471
-7419.487660	4072.642833	1990.296875	119.379860
-7419.487660	4072.642833	1989.331055	-18.675833
-7419.487660	4072.642833	1988.365234	-0.715185
-7419.487660	4072.642833	1987.398438	7.445138
-7419.487660	4072.642833	1986.432617	216.018311
-7419.487660	4072.642833	1985.465820	80.917252
-7419.487660	4072.642833	1984.499023	32.483910
-7419.487660	4072.642833	1983.532227	36.063091
-7419.487660	4072.642833	1982.565430	-78.891930
-7419.487660	4072.642833	1981.597656	171.954407
-7419.487660	4072.642833	1980.629883	153.524933
-7419.487660	4072.642833	1979.662109	38.857071
-7419.487660	4072.642833	1978.694336	146.552689
-7419.487660	4072.642833	1977.726563	120.959854
-7419.487660	4072.642833	1976.758789	36.203983
-7419.487660	4072.642833	1975.790039	203.287399
-7419.487660	4072.642833	1974.821289	-103.395561
-7419.487660	4072.642833	1973.852539	-121.250580
-7419.487660	4072.642833	1972.883789	156.961227
-7419.487660	4072.642833	1971.915039	43.005192
-7419.487660	4072.642833	1970.945313	42.573601
-7419.487660	4072.642833	1969.975586	-4.642446
-7419.487660	4072.642833	1969.005859	-34.534737
-7419.487660	4072.642833	1968.036133	-113.650291
-7419.487660	4072.642833	1967.066406	9.350630
-7419.487660	4072.642833	1966.096680	38.743351
-7419.487660	4072.642833	1965.125977	-5.717750
-7419.487660	4072.642833	1964.155273	105.019676
-7419.487660	4072.642833	1963.184570	161.592392
-7419.487660	4072.642833	1962.213867	203.413605
-7419.487660	4072.642833	1961.242188	100.051437
-7419.487660	4072.642833	1960.271484	70.582954
-7419.487660	4072.642833	1959.299805	92.826088
-7419.487660	4072.642833	1958.328125	75.737465
-7419.487660	4072.642833	1957.356445	16.877895
-7419.487660	4072.642833	1956.384766	144.943024
-7419.487660	4072.642833	1955.412109	86.150803
-7419.487660	4072.642833	1954.439453	22.492069
-7419.487660	4072.642833	1953.467773	121.072784
-7419.487660	4072.642833	1952.495117	-94.856812
-7419.487660	4072.642833	1951.521484	-192.767365
-7419.487660	4072.642833	1950.548828	195.687943
-7419.487660	4072.642833	1949.575195	146.912430
-7419.487660	4072.642833	1948.601563	-122.795952
-7419.487660	4072.642833	1947.627930	-51.176815
-7419.487660	4072.642833	1946.654297	96.512665
-7419.487660	4072.642833	1945.680664	82.208694
-7419.487660	4072.642833	1944.706055	251.926682
-7419.487660	4072.642833	1943.732422	24.218016
-7419.487660	4072.642833	1942.757813	29.590420
-7419.487660	4072.642833	1941.783203	5.545590
-7419.487660	4072.642833	1940.807617	-121.445854
-7419.487660	4072.642833	1939.833008	165.850159
-7419.487660	4072.642833	1938.857422	92.802818
-7419.487660	4072.642833	1937.881836	-83.121246
-7419.487660	4072.642833	1936.906250	15.393321
-7419.487660	4072.642833	1935.930664	-77.169136
-7419.487660	4072.642833	1934.955078	107.020462
-7419.487660	4072.642833	1933.978516	-24.694979
-7419.487660	4072.642833	1933.001953	117.803596
-7419.487660	4072.642833	1932.025391	-84.842148
-7419.487660	4072.642833	1931.048828	-8.457335
-7419.487660	4072.642833	1930.072266	53.215961
-7419.487660	4072.642833	1929.094727	-210.464127
-7419.487660	4072.642833	1928.118164	-19.167088
-7419.487660	4072.642833	1927.140625	44.906761
-7419.487660	4072.642833	1926.163086	108.949409
-7419.487660	4072.642833	1925.184570	158.298050
-7419.487660	4072.642833	1924.207031	-114.962273
-7419.487660	4072.642833	1923.228516	51.673721
-7419.487660	4072.642833	1922.250000	157.165207
-7419.487660	4072.642833	1921.271484	-8.502160
-7419.487660	4072.642833	1920.292969	-183.886185
-7419.487660	4072.642833	1919.314453	-5.195983
-7419.487660	4072.642833	1918.334961	2.542888
-7419.487660	4072.642833	1917.355469	132.297089
-7419.487660	4072.642833	1916.375977	54.575817
-7419.487660	4072.642833	1915.396484	64.699768
-7419.487660	4072.642833	1914.416992	-27.644106
-7419.487660	4072.642833	1913.436523	-215.078003
-7419.487660	4072.642833	1912.457031	43.754642
-7419.487660	4072.642833	1911.476563	41.624138
-7419.487660	4072.642833	1910.496094	227.159470
-7419.487660	4072.642833	1909.515625	-40.667168
-7419.487660	4072.642833	1908.534180	22.956095
-7419.487660	4072.642833	1907.552734	-27.957380
-7419.487660	4072.642833	1906.572266	57.521870
-7419.487660	4072.642833	1905.590820	237.922348
-7419.487660	4072.642833	1904.608398	126.075630
-7419.487660	4072.642833	1903.626953	14.249378
-7419.487660	4072.642833	1902.644531	-187.603668
-7419.487660	4072.642833	1901.663086	-102.270439
-7419.487660	4072.642833	1900.680664	-19.421776
-7419.487660	4072.642833	1899.698242	2.565326
-7419.487660	4072.642833	1898.714844	116.938721
-7419.487660	4072.642833	1897.732422	165.595291
-7419.487660	4072.642833	1896.749023	126.695129
-7419.487660	4072.642833	1895.765625	65.912155
-7419.487660	4072.642833	1894.782227	51.301762
-7419.487660	4072.642833	1893.798828	51.252365
-7419.487660	4072.642833	1892.814453	51.181194
-7419.487660	4072.642833	1891.831055	128.806763
-7419.487660	4072.642833	1890.846680	38.826073
-7419.487660	4072.642833	1889.862305	-170.111176
-7419.487660	4072.642833	1888.877930	-63.429012
-7419.487660	4072.642833	1887.892578	-49.034985
-7419.487660	4072.642833	1886.908203	-20.113111
-7419.487660	4072.642833	1885.922852	37.887417
-7419.487660	4072.642833	1884.937500	-90.929428
-7419.487660	4072.642833	1883.952148	-30.561834
-7419.487660	4072.642833	1882.965820	187.364304
-7419.487660	4072.642833	1881.980469	250.030975
-7419.487660	4072.642833	1880.994141	87.237831
-7419.487660	4072.642833	1880.007813	86.842911
-7419.487660	4072.642833	1879.021484	139.725983
-7419.487660	4072.642833	1878.035156	18.148689
-7419.487660	4072.642833	1877.047852	46.754559
-7419.487660	4072.642833	1876.061523	-4.587538
-7419.487660	4072.642833	1875.074219	99.012115
-7419.487660	4072.642833	1874.086914	217.069977
-7419.487660	4072.642833	1873.098633	44.640636
-7419.487660	4072.642833	1872.111328	99.700638
-7419.487660	4072.642833	1871.123047	72.458847
-7419.487660	4072.642833	1870.135742	-15.269230
-7419.487660	4072.642833	1869.147461	56.620701
-7419.487660	4072.642833	1868.158203	-4.526737
-7419.487660	4072.642833	1867.169922	-12.494490
-7419.487660	4072.642833	1866.180664	117.282532
-7419.487660	4072.642833	1865.192383	147.905289
-7419.487660	4072.642833	1864.203125	108.425102
-7419.487660	4072.642833	1863.213867	44.776756
-7419.487660	4072.642833	1862.223633	31.843740
-7419.487660	4072.642833	1861.234375	50.280960
-7419.487660	4072.642833	1860.244141	85.583893
-7419.487660	4072.642833	1859.253906	62.915951
-7419.487660	4072.642833	1858.263672	-22.517748
-7419.487660	4072.642833	1857.273438	138.169556
-7419.487660	4072.642833	1856.282227	38.226452
-7419.487660	4072.642833	1855.291992	8.241793
-7419.487660	4072.642833	1854.300781	108.464668
-7419.487660	4072.642833	1853.309570	201.390732
-7419.487660	4072.642833	1852.317383	142.384689
-7419.487660	4072.642833	1851.326172	121.937958
-7419.487660	4072.642833	1850.333984	217.139297
-7419.487660	4072.642833	1849.342773	174.948975
-7419.487660	4072.642833	1848.350586	176.107971
-7419.487660	4072.642833	1847.357422	76.088982
-7419.487660	4072.642833	1846.365234	-69.669556
-7419.487660	4072.642833	1845.372070	116.830551
-7419.487660	4072.642833	1844.379883	108.267136
-7419.487660	4072.642833	1843.386719	162.250580
-7419.487660	4072.642833	1842.393555	199.346191
-7419.487660	4072.642833	1841.399414	-6.569826
-7419.487660	4072.642833	1840.406250	18.465240
-7419.487660	4072.642833	1839.412109	60.298412
-7419.487660	4072.642833	1838.417969	-46.975605
-7419.487660	4072.642833	1837.423828	42.880608
-7419.487660	4072.642833	1836.429688	67.785141
-7419.487660	4072.642833	1835.434570	49.403126
-7419.487660	4072.642833	1834.440430	35.806969
-7419.487660	4072.642833	1833.445313	-109.920746
-7419.487660	4072.642833	1832.450195	-22.665138
-7419.487660	4072.642833	1831.454102	45.323326
-7419.487660	4072.642833	1830.458984	-54.785583
-7419.487660	4072.642833	1829.462891	-58.872849
-7419.487660	4072.642833	1828.466797	76.203384
-7419.487660	4072.642833	1827.470703	139.225479
-7419.487660	4072.642833	1826.474609	-13.698512
-7419.487660	4072.642833	1825.478516	-3.497164
-7419.487660	4072.642833	1824.481445	18.665325
-7419.487660	4072.642833	1823.484375	-151.004120
-7419.487660	4072.642833	1822.487305	43.718273
-7419.487660	4072.642833	1821.490234	281.483551
-7419.487660	4072.642833	1820.493164	272.331360
-7419.487660	4072.642833	1819.495117	-50.678410
-7419.487660	4072.642833	1818.498047	-102.925751
-7419.487660	4072.642833	1817.500000	-128.834152
-7419.487660	4072.642833	1816.500977	-23.067099
-7419.487660	4072.642833	1815.502930	97.000481
-7419.487660	4072.642833	1814.504883	-60.638535
-7419.487660	4072.642833	1813.505859	188.567261
-7419.487660	4072.642833	1812.506836	-76.739418
-7419.487660	4072.642833	1811.507813	-35.781536
-7419.487660	4072.642833	1810.508789	5.139296
-7419.487660	4072.642833	1809.508789	65.150566
-7419.487660	4072.642833	1808.508789	31.879963
-7419.487660	4072.642833	1807.508789	134.845215
-7419.487660	4072.642833	1806.508789	70.463501
-7419.487660	4072.642833	1805.508789	10.861926
-7419.487660	4072.642833	1804.508789	-132.349960
-7419.487660	4072.642833	1803.507813	-101.170784
-7419.487660	4072.642833	1802.506836	101.912048
-7419.487660	4072.642833	1801.505859	97.179955
-7419.487660	4072.642833	1800.504883	-12.604699
-7419.487660	4072.642833	1799.502930	-50.768711
-7419.487660	4072.642833	1798.501953	-14.965597
-7419.487660	4072.642833	1797.500000	-98.484901
-7419.487660	4072.642833	1796.498047	70.849648
-7419.487660	4072.642833	1795.496094	-81.854843
-7419.487660	4072.642833	1794.493164	168.442398
-7419.487660	4072.642833	1793.491211	-48.629234
-7419.487660	4072.642833	1792.488281	-22.521578
-7419.487660	4072.642833	1791.485352	79.814781
-7419.487660	4072.642833	1790.482422	-34.723503
-7419.487660	4072.642833	1789.478516	98.505333
-7419.487660	4072.642833	1788.475586	86.382820
-7419.487660	4072.642833	1787.471680	64.719154
-7419.487660	4072.642833	1786.467773	190.655136
-7419.487660	4072.642833	1785.463867	-157.162582
-7419.487660	4072.642833	1784.459961	21.088465
-7419.487660	4072.642833	1783.455078	-62.484749
-7419.487660	4072.642833	1782.450195	65.685913
-7419.487660	4072.642833	1781.445313	36.806183
-7419.487660	4072.642833	1780.440430	-82.446518
-7419.487660	4072.642833	1779.435547	36.092056
-7419.487660	4072.642833	1778.429688	38.084969
-7419.487660	4072.642833	1777.424805	49.567917
-7419.487660	4072.642833	1776.418945	-140.954926
-7419.487660	4072.642833	1775.413086	-122.348923
-7419.487660	4072.642833	1774.406250	-25.380253
-7419.487660	4072.642833	1773.400391	95.286209
-7419.487660	4072.642833	1772.393555	170.773178
-7419.487660	4072.642833	1771.386719	179.744141
-7419.487660	4072.642833	1770.379883	-10.685459
-7419.487660	4072.642833	1769.373047	107.447418
-7419.487660	4072.642833	1768.365234	-4.629844
-7419.487660	4072.642833	1767.358398	-14.673246
-7419.487660	4072.642833	1766.350586	63.025677
-7419.487660	4072.642833	1765.342773	-67.995934
-7419.487660	4072.642833	1764.334961	-49.617802
-7419.487660	4072.642833	1763.326172	-43.114559
-7419.487660	4072.642833	1762.318359	10.772568
-7419.487660	4072.642833	1761.309570	-4.093297
-7419.487660	4072.642833	1760.300781	4.722991
-7419.487660	4072.642833	1759.291016	37.207478
-7419.487660	4072.642833	1758.282227	-6.115323
-7419.487660	4072.642833	1757.272461	12.124925
-7419.487660	4072.642833	1756.262695	13.772601
-7419.487660	4072.642833	1755.252930	133.747803
-7419.487660	4072.642833	1754.243164	76.186432
-7419.487660	4072.642833	1753.233398	-116.222847
-7419.487660	4072.642833	1752.222656	-46.007755
-7419.487660	4072.642833	1751.211914	14.708371
-7419.487660	4072.642833	1750.201172	21.003830
-7419.487660	4072.642833	1749.190430	24.920782
-7419.487660	4072.642833	1748.179688	26.459400
-7419.487660	4072.642833	1747.167969	-78.360237
-7419.487660	4072.642833	1746.156250	-150.073517
-7419.487660	4072.642833	1745.144531	-49.322842
-7419.487660	4072.642833	1744.132813	115.148788
-7419.487660	4072.642833	1743.121094	142.583725
-7419.487660	4072.642833	1742.108398	-75.543892
-7419.487660	4072.642833	1741.095703	107.686653
-7419.487660	4072.642833	1740.083008	38.309711
-7419.487660	4072.642833	1739.070313	-14.533931
-7419.487660	4072.642833	1738.057617	119.004532
-7419.487660	4072.642833	1737.043945	56.707775
-7419.487660	4072.642833	1736.030273	-76.322769
-7419.487660	4072.642833	1735.016602	80.697243
-7419.487660	4072.642833	1734.002930	96.205482
-7419.487660	4072.642833	1732.989258	0.922814
-7419.487660	4072.642833	1731.974609	-141.462845
-7419.487660	4072.642833	1730.959961	147.344299
-7419.487660	4072.642833	1729.945313	-91.611626
-7419.487660	4072.642833	1728.930664	-106.751358
-7419.487660	4072.642833	1727.916016	-27.707552
-7419.487660	4072.642833	1726.900391	11.273104
-7419.487660	4072.642833	1725.885742	130.259689
-7419.487660	4072.642833	1724.870117	84.459801
-7419.487660	4072.642833	1723.853516	-93.094177
-7419.487660	4072.642833	1722.837891	79.922722
-7419.487660	4072.642833	1721.822266	-88.167839
-7419.487660	4072.642833	1720.805664	91.818054
-7419.487660	4072.642833	1719.789063	-76.228981
-7419.487660	4072.642833	1718.772461	235.304489
-7419.487660	4072.642833	1717.754883	71.978363
-7419.487660	4072.642833	1716.738281	40.292503
-7419.487660	4072.642833	1715.720703	-12.533896
-7419.487660	4072.642833	1714.703125	38.000164
-7419.487660	4072.642833	1713.685547	20.406569
-7419.487660	4072.642833	1712.667969	-74.669014
-7419.487660	4072.642833	1711.649414	-0.698954
-7419.487660	4072.642833	1710.630859	-30.031851
-7419.487660	4072.642833	1709.612305	11.036562
-7419.487660	4072.642833	1708.593750	-105.105850
-7419.487660	4072.642833	1707.575195	-28.866159
-7419.487660	4072.642833	1706.555664	59.063515
-7419.487660	4072.642833	1705.536133	53.163704
-7419.487660	4072.642833	1704.516602	138.687500
-7419.487660	4072.642833	1703.497070	-85.214539
-7419.487660	4072.642833	1702.477539	9.666737
-7419.487660	4072.642833	1701.457031	-122.762192
-7419.487660	4072.642833	1700.437500	-93.510094
-7419.487660	4072.642833	1699.416992	-106.432137
-7419.487660	4072.642833	1698.395508	182.711090
-7419.487660	4072.642833	1697.375000	-129.935837
-7419.487660	4072.642833	1696.354492	-42.206669
-7419.487660	4072.642833	1695.333008	118.031609
-7419.487660	4072.642833	1694.311523	116.756653
-7419.487660	4072.642833	1693.290039	-34.239391
-7419.487660	4072.642833	1692.267578	-7.426024
-7419.487660	4072.642833	1691.246094	-85.854950
-7419.487660	4072.642833	1690.223633	-26.316912
-7419.487660	4072.642833	1689.201172	-1.867469
-7419.487660	4072.642833	1688.178711	-12.486921
-7419.487660	4072.642833	1687.155273	9.606189
-7419.487660	4072.642833	1686.132813	17.672682
-7419.487660	4072.642833	1685.109375	46.753822
-7419.487660	4072.642833	1684.085938	68.816528
-7419.487660	4072.642833	1683.062500	4.477182
-7419.487660	4072.642833	1682.039063	80.226173
-7419.487660	4072.642833	1681.014648	27.574461
-7419.487660	4072.642833	1679.990234	180.291687
-7419.487660	4072.642833	1678.965820	76.310654
-7419.487660	4072.642833	1677.941406	51.676434
-7419.487660	4072.642833	1676.916992	150.656769
-7419.487660	4072.642833	1675.891602	88.707939
-7419.487660	4072.642833	1674.866211	-59.475609
-7419.487660	4072.642833	1673.840820	160.666840
-7419.487660	4072.642833	1672.815430	73.115929
-7419.487660	4072.642833	1671.790039	-12.072516
-7419.487660	4072.642833	1670.763672	75.151520
-7419.487660	4072.642833	1669.737305	94.800858
-7419.487660	4072.642833	1668.710938	-76.501282
-7419.487660	4072.642833	1667.684570	71.216942
-7419.487660	4072.642833	1666.658203	163.014297
-7419.487660	4072.642833	1665.630859	82.560905
-7419.487660	4072.642833	1664.603516	9.118636
-7419.487660	4072.642833	1663.576172	217.192520
-7419.487660	4072.642833	1662.548828	1.877463
-7419.487660	4072.642833	1661.520508	154.062363
-7419.487660	4072.642833	1660.493164	-5.355274
-7419.487660	4072.642833	1659.464844	28.225439
-7419.487660	4072.642833	1658.436523	126.869057
-7419.487660	4072.642833	1657.408203	67.469315
-7419.487660	4072.642833	1656.378906	191.625092
-7419.487660	4072.642833	1655.350586	283.218231
-7419.487660	4072.642833	1654.321289	128.615265
-7419.487660	4072.642833	1653.291992	176.074127
-7419.487660	4072.642833	1652.261719	93.517921
-7419.487660	4072.642833	1651.232422	50.455414
-7419.487660	4072.642833	1650.202148	135.037369
-7419.487660	4072.642833	1649.171875	122.148636
-7419.487660	4072.642833	1648.141602	67.515938
-7419.487660	4072.642833	1647.111328	165.971481
-7419.487660	4072.642833	1646.080078	231.929626
-7419.487660	4072.642833	1645.049805	26.633472
-7419.487660	4072.642833	1644.018555	99.555115
-7419.487660	4072.642833	1642.987305	165.501251
-7419.487660	4072.642833	1641.955078	-74.405746
-7419.487660	4072.642833	1640.923828	188.456100
-7419.487660	4072.642833	1639.891602	219.619492
-7419.487660	4072.642833	1638.859375	174.362747
-7419.487660	4072.642833	1637.827148	198.581589
-7419.487660	4072.642833	1636.794922	192.706833
-7419.487660	4072.642833	1635.761719	110.470276
-7419.487660	4072.642833	1634.729492	280.472321
-7419.487660	4072.642833	1633.696289	40.957684
-7419.487660	4072.642833	1632.662109	187.786880
-7419.487660	4072.642833	1631.628906	184.261459
-7419.487660	4072.642833	1630.594727	-18.085764
-7419.487660	4072.642833	1629.561523	82.461746
-7419.487660	4072.642833	1628.527344	222.263016
-7419.487660	4072.642833	1627.493164	288.078766
-7419.487660	4072.642833	1626.458008	21.211128
-7419.487660	4072.642833	1625.423828	149.416672
-7419.487660	4072.642833	1624.388672	92.838631
-7419.487660	4072.642833	1623.353516	297.185944
-7419.487660	4072.642833	1622.318359	254.466583
-7419.487660	4072.642833	1621.282227	281.008179
-7419.487660	4072.642833	1620.247070	194.484131
-7419.487660	4072.642833	1619.210938	239.500702
-7419.487660	4072.642833	1618.174805	139.194519
-7419.487660	4072.642833	1617.137695	234.955704
-7419.487660	4072.642833	1616.101563	372.192017
-7419.487660	4072.642833	1615.064453	248.893524
-7419.487660	4072.642833	1614.027344	323.861877
-7419.487660	4072.642833	1612.990234	311.247589
-7419.487660	4072.642833	1611.953125	245.659302
-7419.487660	4072.642833	1610.916016	193.926270
-7419.487660	4072.642833	1609.877930	395.551025
-7419.487660	4072.642833	1608.839844	214.886871
-7419.487660	4072.642833	1607.801758	402.638092
-7419.487660	4072.642833	1606.763672	422.306854
-7419.487660	4072.642833	1605.724609	315.413269
-7419.487660	4072.642833	1604.685547	316.706146
-7419.487660	4072.642833	1603.646484	446.827240
-7419.487660	4072.642833	1602.607422	342.325592
-7419.487660	4072.642833	1601.568359	299.960144
-7419.487660	4072.642833	1600.528320	289.806824
-7419.487660	4072.642833	1599.489258	318.745605
-7419.487660	4072.642833	1598.449219	327.001343
-7419.487660	4072.642833	1597.408203	431.764740
-7419.487660	4072.642833	1596.368164	460.695953
-7419.487660	4072.642833	1595.327148	367.901794
-7419.487660	4072.642833	1594.287109	429.007263
-7419.487660	4072.642833	1593.246094	391.381866
-7419.487660	4072.642833	1592.204102	509.867645
-7419.487660	4072.642833	1591.163086	447.024048
-7419.487660	4072.642833	1590.121094	469.113312
-7419.487660	4072.642833	1589.079102	401.741394
-7419.487660	4072.642833	1588.037109	329.823547
-7419.487660	4072.642833	1586.995117	361.138275
-7419.487660	4072.642833	1585.953125	282.407379
-7419.487660	4072.642833	1584.910156	474.202148
-7419.487660	4072.642833	1583.867188	347.382385
-7419.487660	4072.642833	1582.824219	378.727570
-7419.487660	4072.642833	1581.781250	487.966370
-7419.487660	4072.642833	1580.737305	551.368347
-7419.487660	4072.642833	1579.693359	383.473938
-7419.487660	4072.642833	1578.649414	414.849731
-7419.487660	4072.642833	1577.605469	389.003662
-7419.487660	4072.642833	1576.561523	221.288498
-7419.487660	4072.642833	1575.516602	328.236542
-7419.487660	4072.642833	1574.472656	302.472168
-7419.487660	4072.642833	1573.427734	201.253250
-7419.487660	4072.642833	1572.381836	385.944214
-7419.487660	4072.642833	1571.336914	451.689911
-7419.487660	4072.642833	1570.291016	444.276581
-7419.487660	4072.642833	1569.246094	304.326508
-7419.487660	4072.642833	1568.200195	397.521484
-7419.487660	4072.642833	1567.153320	296.508209
-7419.487660	4072.642833	1566.107422	634.109131
-7419.487660	4072.642833	1565.060547	302.471893
-7419.487660	4072.642833	1564.013672	644.541992
-7419.487660	4072.642833	1562.966797	361.010040
-7419.487660	4072.642833	1561.919922	356.054932
-7419.487660	4072.642833	1560.872070	344.274597
-7419.487660	4072.642833	1559.825195	597.167969
-7419.487660	4072.642833	1558.777344	254.638901
-7419.487660	4072.642833	1557.729492	293.116089
-7419.487660	4072.642833	1556.680664	288.276672
-7419.487660	4072.642833	1555.632813	228.748352
-7419.487660	4072.642833	1554.583984	139.633316
-7419.487660	4072.642833	1553.535156	232.874893
-7419.487660	4072.642833	1552.486328	383.058167
-7419.487660	4072.642833	1551.436523	257.581146
-7419.487660	4072.642833	1550.387695	350.807617
-7419.487660	4072.642833	1549.337891	259.584076
-7419.487660	4072.642833	1548.288086	380.134033
-7419.487660	4072.642833	1547.238281	61.375626
-7419.487660	4072.642833	1546.187500	136.448120
-7419.487660	4072.642833	1545.136719	409.453827
-7419.487660	4072.642833	1544.086914	191.032074
-7419.487660	4072.642833	1543.035156	197.872940
-7419.487660	4072.642833	1541.984375	170.626541
-7419.487660	4072.642833	1540.933594	150.233932
-7419.487660	4072.642833	1539.881836	95.777863
-7419.487660	4072.642833	1538.830078	93.632980
-7419.487660	4072.642833	1537.778320	57.432266
-7419.487660	4072.642833	1536.725586	239.342514
-7419.487660	4072.642833	1535.673828	78.262070
-7419.487660	4072.642833	1534.621094	185.210922
-7419.487660	4072.642833	1533.568359	133.224731
-7419.487660	4072.642833	1532.515625	162.995056
-7419.487660	4072.642833	1531.461914	145.122406
-7419.487660	4072.642833	1530.409180	127.281265
-7419.487660	4072.642833	1529.355469	11.928367
-7419.487660	4072.642833	1528.301758	19.118782
-7419.487660	4072.642833	1527.247070	55.808586
-7419.487660	4072.642833	1526.193359	38.099785
-7419.487660	4072.642833	1525.138672	56.689545
-7419.487660	4072.642833	1524.083984	-42.544891
-7419.487660	4072.642833	1523.029297	-14.831897
-7419.487660	4072.642833	1521.974609	19.691957
-7419.487660	4072.642833	1520.918945	38.374489
-7419.487660	4072.642833	1519.863281	-51.616154
-7419.487660	4072.642833	1518.807617	64.477005
-7419.487660	4072.642833	1517.751953	28.894348
-7419.487660	4072.642833	1516.696289	-162.799530
-7419.487660	4072.642833	1515.639648	-80.612175
-7419.487660	4072.642833	1514.583008	-140.947815
-7419.487660	4072.642833	1513.526367	-70.051445
-7419.487660	4072.642833	1512.469727	-148.400452
-7419.487660	4072.642833	1511.412109	-106.866539
-7419.487660	4072.642833	1510.355469	-146.695160
-7419.487660	4072.642833	1509.297852	-73.482315
-7419.487660	4072.642833	1508.240234	-90.651001
-7419.487660	4072.642833	1507.181641	-141.669479
-7419.487660	4072.642833	1506.124023	-163.277542
-7419.487660	4072.642833	1505.065430	54.515900
-7419.487660	4072.642833	1504.006836	-100.269859
-7419.487660	4072.642833	1502.948242	-49.554611
-7419.487660	4072.642833	1501.888672	-109.414894
-7419.487660	4072.642833	1500.830078	-69.941368
-7419.487660	4072.642833	1499.770508	3.384655
-7419.487660	4072.642833	1498.710938	-148.835617
-7419.487660	4072.642833	1497.650391	-134.094650
-7419.487660	4072.642833	1496.590820	18.199289
-7419.487660	4072.642833	1495.530273	3.657891
-7419.487660	4072.642833	1494.469727	31.972076
-7419.487660	4072.642833	1493.409180	-59.115856
-7419.487660	4072.642833	1492.348633	-42.003258
-7419.487660	4072.642833	1491.287109	-6.848432
-7419.487660	4072.642833	1490.225586	111.642937
-7419.487660	4072.642833	1489.164063	-19.791731
-7419.487660	4072.642833	1488.102539	-63.355465
-7419.487660	4072.642833	1487.041016	-41.603821
-7419.487660	4072.642833	1485.978516	110.676117
-7419.487660	4072.642833	1484.916016	33.466999
-7419.487660	4072.642833	1483.853516	-3.203730
-7419.487660	4072.642833	1482.791016	-82.546913
-7419.487660	4072.642833	1481.727539	-78.635658
-7419.487660	4072.642833	1480.664063	51.176636
-7419.487660	4072.642833	1479.600586	28.147861
-7419.487660	4072.642833	1478.537109	243.321075
-7419.487660	4072.642833	1477.473633	101.277435
-7419.487660	4072.642833	1476.409180	127.782829
-7419.487660	4072.642833	1475.344727	109.457329
-7419.487660	4072.642833	1474.280273	129.159409
-7419.487660	4072.642833	1473.215820	164.811035
-7419.487660	4072.642833	1472.151367	59.037285
-7419.487660	4072.642833	1471.085938	197.793655
-7419.487660	4072.642833	1470.020508	255.823074
-7419.487660	4072.642833	1468.955078	67.357101
-7419.487660	4072.642833	1467.888672	293.482147
-7419.487660	4072.642833	1466.823242	105.039268
-7419.487660	4072.642833	1465.756836	272.682739
-7419.487660	4072.642833	1464.690430	190.070374
-7419.487660	4072.642833	1463.624023	292.816498
-7419.487660	4072.642833	1462.556641	221.425690
-7419.487660	4072.642833	1461.490234	319.407593
-7419.487660	4072.642833	1460.422852	160.739044
-7419.487660	4072.642833	1459.355469	256.678314
-7419.487660	4072.642833	1458.287109	303.797455
-7419.487660	4072.642833	1457.219727	425.114655
-7419.487660	4072.642833	1456.151367	368.756439
-7419.487660	4072.642833	1455.083008	217.498444
-7419.487660	4072.642833	1454.014648	271.534149
-7419.487660	4072.642833	1452.945313	485.707184
-7419.487660	4072.642833	1451.876953	284.955353
-7419.487660	4072.642833	1450.807617	194.628143
-7419.487660	4072.642833	1449.738281	179.751053
-7419.487660	4072.642833	1448.668945	192.951096
-7419.487660	4072.642833	1447.598633	291.162903
-7419.487660	4072.642833	1446.528320	169.713669
-7419.487660	4072.642833	1445.458008	170.576096
-7419.487660	4072.642833	1444.387695	209.896667
-7419.487660	4072.642833	1443.317383	114.978172
-7419.487660	4072.642833	1442.246094	138.484863
-7419.487660	4072.642833	1441.174805	186.425430
-7419.487660	4072.642833	1440.103516	277.650482
-7419.487660	4072.642833	1439.032227	46.564297
-7419.487660	4072.642833	1437.960938	17.730387
-7419.487660	4072.642833	1436.888672	52.925484
-7419.487660	4072.642833	1435.816406	139.500870
-7419.487660	4072.642833	1434.744141	16.925276
-7419.487660	4072.642833	1433.670898	-5.511757
-7419.487660	4072.642833	1432.598633	-59.563065
-7419.487660	4072.642833	1431.525391	-56.061695
-7419.487660	4072.642833	1430.452148	-80.546196
-7419.487660	4072.642833	1429.378906	-132.228485
-7419.487660	4072.642833	1428.304688	-77.642128
-7419.487660	4072.642833	1427.231445	-81.543228
-7419.487660	4072.642833	1426.157227	44.446415
-7419.487660	4072.642833	1425.083008	-27.874022
-7419.487660	4072.642833	1424.007813	-69.730385
-7419.487660	4072.642833	1422.933594	-22.233503
-7419.487660	4072.642833	1421.858398	78.345634
-7419.487660	4072.642833	1420.783203	78.877357
-7419.487660	4072.642833	1419.708008	-12.931317
-7419.487660	4072.642833	1418.631836	-26.268017
-7419.487660	4072.642833	1417.555664	12.928901
-7419.487660	4072.642833	1416.479492	-14.061303
-7419.487660	4072.642833	1415.403320	-10.525778
-7419.487660	4072.642833	1414.327148	-7.042686
-7419.487660	4072.642833	1413.250000	-166.351257
-7419.487660	4072.642833	1412.173828	-110.093254
-7419.487660	4072.642833	1411.096680	-25.323225
-7419.487660	4072.642833	1410.018555	138.911011
-7419.487660	4072.642833	1408.941406	60.626682
-7419.487660	4072.642833	1407.863281	-5.427859
-7419.487660	4072.642833	1406.785156	-10.505761
-7419.487660	4072.642833	1405.707031	84.285492
-7419.487660	4072.642833	1404.628906	254.780792
-7419.487660	4072.642833	1403.549805	160.411102
-7419.487660	4072.642833	1402.470703	23.891888
-7419.487660	4072.642833	1401.391602	99.800217
-7419.487660	4072.642833	1400.312500	214.195587
-7419.487660	4072.642833	1399.233398	136.092575
-7419.487660	4072.642833	1398.153320	84.198639
-7419.487660	4072.642833	1397.073242	25.586500
-7419.487660	4072.642833	1395.993164	-22.029081
-7419.487660	4072.642833	1394.913086	214.385986
-7419.487660	4072.642833	1393.832031	67.795143
-7419.487660	4072.642833	1392.750977	33.924290
-7419.487660	4072.642833	1391.669922	-20.988388
-7419.487660	4072.642833	1390.588867	68.315811
-7419.487660	4072.642833	1389.506836	-39.568722
-7419.487660	4072.642833	1388.425781	175.409195
-7419.487660	4072.642833	1387.343750	89.886711
-7419.487660	4072.642833	1386.261719	171.795609
-7419.487660	4072.642833	1385.178711	169.031158
-7419.487660	4072.642833	1384.096680	190.027115
-7419.487660	4072.642833	1383.013672	136.445282
-7419.487660	4072.642833	1381.930664	103.747551
-7419.487660	4072.642833	1380.846680	106.635002
-7419.487660	4072.642833	1379.763672	109.839943
-7419.487660	4072.642833	1378.679688	85.341797
-7419.487660	4072.642833	1377.595703	72.632614
-7419.487660	4072.642833	1376.511719	-1.888318
-7419.487660	4072.642833	1375.427734	144.972229
-7419.487660	4072.642833	1374.342773	143.336380
-7419.487660	4072.642833	1373.257813	181.397232
-7419.487660	4072.642833	1372.172852	59.398788
-7419.487660	4072.642833	1371.087891	128.790131
-7419.487660	4072.642833	1370.001953	161.841919
-7419.487660	4072.642833	1368.916992	209.252686
-7419.487660	4072.642833	1367.831055	63.892002
-7419.487660	4072.642833	1366.744141	89.586006
-7419.487660	4072.642833	1365.658203	-6.397632
-7419.487660	4072.642833	1364.571289	131.078430
-7419.487660	4072.642833	1363.484375	-167.441406
-7419.487660	4072.642833	1362.397461	-11.270798
-7419.487660	4072.642833	1361.310547	156.892853
-7419.487660	4072.642833	1360.222656	92.031349
-7419.487660	4072.642833	1359.135742	108.718674
-7419.487660	4072.642833	1358.047852	253.045624
-7419.487660	4072.642833	1356.958984	20.810921
-7419.487660	4072.642833	1355.871094	146.607910
-7419.487660	4072.642833	1354.782227	-6.212702
-7419.487660	4072.642833	1353.693359	-88.226425
-7419.487660	4072.642833	1352.604492	47.195961
-7419.487660	4072.642833	1351.515625	139.048904
-7419.487660	4072.642833	1350.425781	75.619606
-7419.487660	4072.642833	1349.335938	133.081970
-7419.487660	4072.642833	1348.246094	227.607681
-7419.487660	4072.642833	1347.156250	176.529572
-7419.487660	4072.642833	1346.066406	120.748795
-7419.487660	4072.642833	1344.975586	39.722118
-7419.487660	4072.642833	1343.884766	181.724869
-7419.487660	4072.642833	1342.793945	290.418945
-7419.487660	4072.642833	1341.702148	259.340271
-7419.487660	4072.642833	1340.611328	361.414490
-7419.487660	4072.642833	1339.519531	216.429459
-7419.487660	4072.642833	1338.427734	356.057861
-7419.487660	4072.642833	1337.334961	231.658920
-7419.487660	4072.642833	1336.243164	200.007660
-7419.487660	4072.642833	1335.150391	248.334564
-7419.487660	4072.642833	1334.057617	331.775055
-7419.487660	4072.642833	1332.964844	132.382629
-7419.487660	4072.642833	1331.871094	79.468781
-7419.487660	4072.642833	1330.778320	315.493835
-7419.487660	4072.642833	1329.684570	231.518600
-7419.487660	4072.642833	1328.590820	305.424408
-7419.487660	4072.642833	1327.496094	212.257278
-7419.487660	4072.642833	1326.402344	317.888458
-7419.487660	4072.642833	1325.307617	242.341766
-7419.487660	4072.642833	1324.212891	297.016083
-7419.487660	4072.642833	1323.117188	183.715286
-7419.487660	4072.642833	1322.022461	245.179581
-7419.487660	4072.642833	1320.926758	340.121460
-7419.487660	4072.642833	1319.831055	131.703339
-7419.487660	4072.642833	1318.735352	175.456268
-7419.487660	4072.642833	1317.638672	182.704681
-7419.487660	4072.642833	1316.542969	107.348282
-7419.487660	4072.642833	1315.446289	280.968353
-7419.487660	4072.642833	1314.349609	204.766830
-7419.487660	4072.642833	1313.251953	245.074539
-7419.487660	4072.642833	1312.155273	314.377472
-7419.487660	4072.642833	1311.057617	161.091553
-7419.487660	4072.642833	1309.959961	193.342880
-7419.487660	4072.642833	1308.862305	271.167358
-7419.487660	4072.642833	1307.763672	281.160126
-7419.487660	4072.642833	1306.665039	158.913010
-7419.487660	4072.642833	1305.566406	129.904327
-7419.487660	4072.642833	1304.467773	249.832535
-7419.487660	4072.642833	1303.369141	59.377514
-7419.487660	4072.642833	1302.269531	54.536339
-7419.487660	4072.642833	1301.169922	133.555588
-7419.487660	4072.642833	1300.070313	183.508240
-7419.487660	4072.642833	1298.970703	126.111298
-7419.487660	4072.642833	1297.870117	114.408272
-7419.487660	4072.642833	1296.769531	195.274078
-7419.487660	4072.642833	1295.668945	208.925751
-7419.487660	4072.642833	1294.568359	298.884949
-7419.487660	4072.642833	1293.466797	172.449661
-7419.487660	4072.642833	1292.366211	147.981628
-7419.487660	4072.642833	1291.264648	314.629791
-7419.487660	4072.642833	1290.162109	247.736694
-7419.487660	4072.642833	1289.060547	169.913528
-7419.487660	4072.642833	1287.958008	98.765335
-7419.487660	4072.642833	1286.855469	296.917908
-7419.487660	4072.642833	1285.752930	243.855286
-7419.487660	4072.642833	1284.650391	177.254959
-7419.487660	4072.642833	1283.546875	134.813904
-7419.487660	4072.642833	1282.444336	92.121666
-7419.487660	4072.642833	1281.339844	75.846466
-7419.487660	4072.642833	1280.236328	106.064133
-7419.487660	4072.642833	1279.132813	167.915512
-7419.487660	4072.642833	1278.028320	108.886200
-7419.487660	4072.642833	1276.923828	149.484177
-7419.487660	4072.642833	1275.819336	119.691063
-7419.487660	4072.642833	1274.713867	72.886070
-7419.487660	4072.642833	1273.608398	56.627411
-7419.487660	4072.642833	1272.503906	104.857056
-7419.487660	4072.642833	1271.397461	7.276230
-7419.487660	4072.642833	1270.291992	33.901371
-7419.487660	4072.642833	1269.185547	133.282730
-7419.487660	4072.642833	1268.080078	128.064774
-7419.487660	4072.642833	1266.972656	0.286189
-7419.487660	4072.642833	1265.866211	35.637165
-7419.487660	4072.642833	1264.759766	20.416862
-7419.487660	4072.642833	1263.652344	63.160316
-7419.487660	4072.642833	1262.544922	28.206905
-7419.487660	4072.642833	1261.436523	-45.725708
-7419.487660	4072.642833	1260.329102	102.183067
-7419.487660	4072.642833	1259.220703	-56.440189
-7419.487660	4072.642833	1258.112305	-50.121387
-7419.487660	4072.642833	1257.003906	67.318375
-7419.487660	4072.642833	1255.895508	-33.247189
-7419.487660	4072.642833	1254.786133	39.953342
-7419.487660	4072.642833	1253.676758	43.442871
-7419.487660	4072.642833	1252.567383	65.429588
-7419.487660	4072.642833	1251.458008	66.682228
-7419.487660	4072.642833	1250.347656	117.928772
-7419.487660	4072.642833	1249.237305	103.154015
-7419.487660	4072.642833	1248.126953	67.113014
-7419.487660	4072.642833	1247.016602	1.763488
-7419.487660	4072.642833	1245.905273	32.003338
-7419.487660	4072.642833	1244.793945	-58.845249
-7419.487660	4072.642833	1243.682617	-45.408562
-7419.487660	4072.642833	1242.571289	-36.471569
-7419.487660	4072.642833	1241.459961	50.647549
-7419.487660	4072.642833	1240.347656	-70.533653
-7419.487660	4072.642833	1239.235352	29.009634
-7419.487660	4072.642833	1238.123047	-24.091551
-7419.487660	4072.642833	1237.009766	-31.721502
-7419.487660	4072.642833	1235.897461	-59.539795
-7419.487660	4072.642833	1234.784180	64.043694
-7419.487660	4072.642833	1233.670898	14.187051
-7419.487660	4072.642833	1232.556641	-48.928085
-7419.487660	4072.642833	1231.443359	-123.389519
-7419.487660	4072.642833	1230.329102	-86.183304
-7419.487660	4072.642833	1229.214844	-15.709931
-7419.487660	4072.642833	1228.099609	-29.927422
-7419.487660	4072.642833	1226.985352	-114.149162
-7419.487660	4072.642833	1225.870117	21.869753
-7419.487660	4072.642833	1224.754883	-50.146656
-7419.487660	4072.642833	1223.639648	-31.074665
-7419.487660	4072.642833	1222.523438	-107.127670
-7419.487660	4072.642833	1221.408203	-29.773338
-7419.487660	4072.642833	1220.291992	-69.827805
-7419.487660	4072.642833	1219.174805	-96.953491
-7419.487660	4072.642833	1218.058594	45.923458
-7419.487660	4072.642833	1216.941406	53.624592
-7419.487660	4072.642833	1215.824219	-87.363358
-7419.487660	4072.642833	1214.707031	-57.931316
-7419.487660	4072.642833	1213.589844	18.886246
-7419.487660	4072.642833	1212.471680	-75.409241
-7419.487660	4072.642833	1211.353516	-12.487769
-7419.487660	4072.642833	1210.235352	-17.970720
-7419.487660	4072.642833	1209.117188	-7.203601
-7419.487660	4072.642833	1207.998047	-165.601013
-7419.487660	4072.642833	1206.878906	-130.694733
-7419.487660	4072.642833	1205.759766	-57.925495
-7419.487660	4072.642833	1204.640625	-117.714958
-7419.487660	4072.642833	1203.520508	-28.304401
-7419.487660	4072.642833	1202.401367	-134.699417
-7419.487660	4072.642833	1201.281250	-76.682114
-7419.487660	4072.642833	1200.160156	-48.344578
-7419.487660	4072.642833	1199.040039	24.047878
-7419.487660	4072.642833	1197.918945	-113.532974
-7419.487660	4072.642833	1196.797852	-134.446487
-7419.487660	4072.642833	1195.676758	-7.451226
-7419.487660	4072.642833	1194.555664	133.314835
-7419.487660	4072.642833	1193.433594	43.790520
-7419.487660	4072.642833	1192.311523	-7.102710
-7419.487660	4072.642833	1191.189453	-194.864639
-7419.487660	4072.642833	1190.066406	-158.142883
-7419.487660	4072.642833	1188.944336	-49.602970
-7419.487660	4072.642833	1187.821289	-212.894379
-7419.487660	4072.642833	1186.698242	-67.314827
-7419.487660	4072.642833	1185.574219	42.127670
-7419.487660	4072.642833	1184.451172	-9.896395
-7419.487660	4072.642833	1183.327148	-80.883728
-7419.487660	4072.642833	1182.203125	46.790348
-7419.487660	4072.642833	1181.078125	-88.447144
-7419.487660	4072.642833	1179.954102	-22.071144
-7419.487660	4072.642833	1178.829102	-108.027641
-7419.487660	4072.642833	1177.704102	-26.749533
-7419.487660	4072.642833	1176.579102	-89.222908
-7419.487660	4072.642833	1175.453125	98.115448
-7419.487660	4072.642833	1174.327148	-125.873871
-7419.487660	4072.642833	1173.201172	-165.662292
-7419.487660	4072.642833	1172.075195	-84.348671
-7419.487660	4072.642833	1170.949219	-13.139319
-7419.487660	4072.642833	1169.822266	-5.272341
-7419.487660	4072.642833	1168.695313	-30.561867
-7419.487660	4072.642833	1167.568359	-83.557930
-7419.487660	4072.642833	1166.440430	-129.162262
-7419.487660	4072.642833	1165.313477	2.599793
-7419.487660	4072.642833	1164.185547	-40.511051
-7419.487660	4072.642833	1163.057617	-96.654060
-7419.487660	4072.642833	1161.928711	-72.420937
-7419.487660	4072.642833	1160.800781	-21.121111
-7419.487660	4072.642833	1159.671875	27.030460
-7419.487660	4072.642833	1158.541992	23.655104
-7419.487660	4072.642833	1157.413086	-50.368515
-7419.487660	4072.642833	1156.283203	-120.538155
-7419.487660	4072.642833	1155.154297	107.921890
-7419.487660	4072.642833	1154.023438	-81.332687
-7419.487660	4072.642833	1152.893555	66.175323
-7419.487660	4072.642833	1151.763672	76.645157
-7419.487660	4072.642833	1150.632813	26.844830
-7419.487660	4072.642833	1149.501953	-109.526321
-7419.487660	4072.642833	1148.370117	-34.721783
-7419.487660	4072.642833	1147.239258	-76.680939
-7419.487660	4072.642833	1146.107422	79.487823
-7419.487660	4072.642833	1144.975586	-26.157669
-7419.487660	4072.642833	1143.843750	83.454674
-7419.487660	4072.642833	1142.710938	49.458977
-7419.487660	4072.642833	1141.578125	-52.887665
-7419.487660	4072.642833	1140.445313	43.368690
-7419.487660	4072.642833	1139.312500	61.110683
-7419.487660	4072.642833	1138.178711	-22.673124
-7419.487660	4072.642833	1137.045898	85.212013
-7419.487660	4072.642833	1135.912109	76.255081
-7419.487660	4072.642833	1134.777344	1.076479
-7419.487660	4072.642833	1133.643555	-52.042019
-7419.487660	4072.642833	1132.508789	43.471485
-7419.487660	4072.642833	1131.374023	92.769783
-7419.487660	4072.642833	1130.239258	157.280457
-7419.487660	4072.642833	1129.104492	116.954063
-7419.487660	4072.642833	1127.968750	129.242889
-7419.487660	4072.642833	1126.833008	214.542480
-7419.487660	4072.642833	1125.697266	51.492359
-7419.487660	4072.642833	1124.560547	153.498383
-7419.487660	4072.642833	1123.424805	130.246979
-7419.487660	4072.642833	1122.288086	49.769688
-7419.487660	4072.642833	1121.151367	50.784939
-7419.487660	4072.642833	1120.013672	118.974876
-7419.487660	4072.642833	1118.876953	143.801025
-7419.487660	4072.642833	1117.739258	137.528152
-7419.487660	4072.642833	1116.601563	60.269817
-7419.487660	4072.642833	1115.462891	95.308174
-7419.487660	4072.642833	1114.324219	150.818832
-7419.487660	4072.642833	1113.186523	80.778717
-7419.487660	4072.642833	1112.046875	46.117474
-7419.487660	4072.642833	1110.908203	181.774918
-7419.487660	4072.642833	1109.769531	-17.612307
-7419.487660	4072.642833	1108.629883	180.522049
-7419.487660	4072.642833	1107.490234	141.439667
-7419.487660	4072.642833	1106.349609	152.416718
-7419.487660	4072.642833	1105.209961	52.446507
-7419.487660	4072.642833	1104.069336	-5.422467
-7419.487660	4072.642833	1102.928711	83.793251
-7419.487660	4072.642833	1101.787109	155.043594
-7419.487660	4072.642833	1100.646484	163.425568
-7419.487660	4072.642833	1099.504883	199.806351
-7419.487660	4072.642833	1098.363281	187.414154
-7419.487660	4072.642833	1097.221680	35.084831
-7419.487660	4072.642833	1096.079102	146.872253
-7419.487660	4072.642833	1094.936523	207.496353
-7419.487660	4072.642833	1093.793945	171.169983
-7419.487660	4072.642833	1092.651367	58.106983
-7419.487660	4072.642833	1091.507813	246.378220
-7419.487660	4072.642833	1090.364258	-5.830447
-7419.487660	4072.642833	1089.220703	250.491211
-7419.487660	4072.642833	1088.077148	77.479904
-7419.487660	4072.642833	1086.933594	264.293304
-7419.487660	4072.642833	1085.789063	187.313736
-7419.487660	4072.642833	1084.644531	44.431278
-7419.487660	4072.642833	1083.499023	147.746445
-7419.487660	4072.642833	1082.354492	146.548889
-7419.487660	4072.642833	1081.208984	103.825287
-7419.487660	4072.642833	1080.063477	109.885742
-7419.487660	4072.642833	1078.917969	70.004204
-7419.487660	4072.642833	1077.771484	-20.735518
-7419.487660	4072.642833	1076.625977	61.868080
-7419.487660	4072.642833	1075.479492	94.933311
-7419.487660	4072.642833	1074.332031	52.238934
-7419.487660	4072.642833	1073.185547	107.707771
-7419.487660	4072.642833	1072.038086	323.363800
-7419.487660	4072.642833	1070.890625	252.250214
-7419.487660	4072.642833	1069.743164	271.582886
-7419.487660	4072.642833	1068.594727	195.638351
-7419.487660	4072.642833	1067.447266	95.436867
-7419.487660	4072.642833	1066.298828	155.709183
-7419.487660	4072.642833	1065.149414	228.812256
-7419.487660	4072.642833	1064.000977	212.876755
-7419.487660	4072.642833	1062.851563	305.331146
-7419.487660	4072.642833	1061.702148	318.959045
-7419.487660	4072.642833	1060.552734	200.576950
-7419.487660	4072.642833	1059.402344	124.512520
-7419.487660	4072.642833	1058.252930	132.622299
-7419.487660	4072.642833	1057.102539	102.545448
-7419.487660	4072.642833	1055.951172	71.229240
-7419.487660	4072.642833	1054.800781	132.727600
-7419.487660	4072.642833	1053.649414	71.704475
-7419.487660	4072.642833	1052.498047	38.954479
-7419.487660	4072.642833	1051.346680	166.965973
-7419.487660	4072.642833	1050.194336	15.609443
-7419.487660	4072.642833	1049.042969	-64.893944
-7419.487660	4072.642833	1047.890625	-42.440006
-7419.487660	4072.642833	1046.738281	108.834824
-7419.487660	4072.642833	1045.584961	-31.497368
-7419.487660	4072.642833	1044.431641	36.875282
-7419.487660	4072.642833	1043.278320	184.211670
-7419.487660	4072.642833	1042.125000	205.387375
-7419.487660	4072.642833	1040.971680	177.694031
-7419.487660	4072.642833	1039.817383	87.872093
-7419.487660	4072.642833	1038.663086	75.759903
-7419.487660	4072.642833	1037.508789	228.164215
-7419.487660	4072.642833	1036.353516	121.088158
-7419.487660	4072.642833	1035.198242	186.338379
-7419.487660	4072.642833	1034.042969	40.379856
-7419.487660	4072.642833	1032.887695	164.758133
-7419.487660	4072.642833	1031.732422	56.215538
-7419.487660	4072.642833	1030.576172	106.949425
-7419.487660	4072.642833	1029.419922	27.382786
-7419.487660	4072.642833	1028.263672	75.848770
-7419.487660	4072.642833	1027.106445	206.979752
-7419.487660	4072.642833	1025.949219	11.210031
-7419.487660	4072.642833	1024.792969	30.148273
-7419.487660	4072.642833	1023.634766	32.500782
-7419.487660	4072.642833	1022.477539	51.229046
-7419.487660	4072.642833	1021.319336	169.065811
-7419.487660	4072.642833	1020.161133	54.323414
-7419.487660	4072.642833	1019.002930	-27.953077
-7419.487660	4072.642833	1017.843750	-55.978573
-7419.487660	4072.642833	1016.684570	13.320538
-7419.487660	4072.642833	1015.525391	113.554291
-7419.487660	4072.642833	1014.366211	34.198940
-7419.487660	4072.642833	1013.207031	-38.039780
-7419.487660	4072.642833	1012.046875	27.067469
-7419.487660	4072.642833	1010.886719	-48.134109
-7419.487660	4072.642833	1009.726563	22.141800
-7419.487660	4072.642833	1008.565430	-40.469257
-7419.487660	4072.642833	1007.404297	38.006401
-7419.487660	4072.642833	1006.243164	-16.776749
-7419.487660	4072.642833	1005.082031	53.966648
-7419.487660	4072.642833	1003.920898	55.443325
-7419.487660	4072.642833	1002.758789	5.182309
-7419.487660	4072.642833	1001.596680	59.660789
-7419.487660	4072.642833	1000.433594	132.174866
-7419.487660	4072.642833	999.271484	59.127064
-7419.487660	4072.642833	998.108398	107.055656
-7419.487660	4072.642833	996.945313	14.326084
-7419.487660	4072.642833	995.782227	-26.927170
-7419.487660	4072.642833	994.618164	16.497194
-7419.487660	4072.642833	993.454102	-44.015312
-7419.487660	4072.642833	992.290039	57.345097
-7419.487660	4072.642833	991.125977	-53.219219
-7419.487660	4072.642833	989.960938	8.640448
-7419.487660	4072.642833	988.796875	-23.853256
-7419.487660	4072.642833	987.630859	105.266716
-7419.487660	4072.642833	986.465820	-220.369080
-7419.487660	4072.642833	985.300781	-95.460770
-7419.487660	4072.642833	984.134766	144.478973
-7419.487660	4072.642833	982.968750	-23.189602
-7419.487660	4072.642833	981.801758	56.498844
-7419.487660	4072.642833	980.635742	105.558655
-7419.487660	4072.642833	979.468750	-1.873214
-7419.487660	4072.642833	978.301758	-92.445717
-7419.487660	4072.642833	977.133789	20.283970
-7419.487660	4072.642833	975.966797	0.535368
-7419.487660	4072.642833	974.798828	71.766151
-7419.487660	4072.642833	973.630859	35.585709
-7419.487660	4072.642833	972.461914	18.605282
-7419.487660	4072.642833	971.293945	34.023987
-7419.487660	4072.642833	970.125000	26.630455
-7419.487660	4072.642833	968.956055	-83.821823
-7419.487660	4072.642833	967.786133	128.849152
-7419.487660	4072.642833	966.617188	13.262502
-7419.487660	4072.642833	965.447266	86.433830
-7419.487660	4072.642833	964.276367	-54.275810
-7419.487660	4072.642833	963.106445	-140.480637
-7419.487660	4072.642833	961.935547	87.955025
-7419.487660	4072.642833	960.764648	102.497620
-7419.487660	4072.642833	959.593750	96.747978
-7419.487660	4072.642833	958.422852	-50.944542
-7419.487660	4072.642833	957.250977	-23.369703
-7419.487660	4072.642833	956.079102	70.840843
-7419.487660	4072.642833	954.907227	87.637535
-7419.487660	4072.642833	953.734375	-115.458382
-7419.487660	4072.642833	952.562500	-42.154705
-7419.487660	4072.642833	951.389648	-158.109879
-7419.487660	4072.642833	950.215820	-76.300232
-7419.487660	4072.642833	949.042969	98.099182
-7419.487660	4072.642833	947.869141	-42.910450
-7419.487660	4072.642833	946.695313	-70.854263
-7419.487660	4072.642833	945.521484	120.500893
-7419.487660	4072.642833	944.346680	-45.248116
-7419.487660	4072.642833	943.172852	-41.566780
-7419.487660	4072.642833	941.998047	-102.274796
-7419.487660	4072.642833	940.822266	26.713028
-7419.487660	4072.642833	939.647461	5.975170
-7419.487660	4072.642833	938.471680	-22.470201
-7419.487660	4072.642833	937.295898	-3.472886
-7419.487660	4072.642833	936.119141	15.613260
-7419.487660	4072.642833	934.943359	-35.238216
-7419.487660	4072.642833	933.766602	58.722740
-7419.487660	4072.642833	932.589844	75.282578
-7419.487660	4072.642833	931.413086	131.710571
-7419.487660	4072.642833	930.235352	115.696777
-7419.487660	4072.642833	929.057617	119.770828
-7419.487660	4072.642833	927.879883	183.716644
-7419.487660	4072.642833	926.702148	97.855728
-7419.487660	4072.642833	925.523438	154.279495
-7419.487660	4072.642833	924.344727	100.882820
-7419.487660	4072.642833	923.166016	62.471581
-7419.487660	4072.642833	921.987305	201.206161
-7419.487660	4072.642833	920.807617	170.274628
-7419.487660	4072.642833	919.627930	173.056732
-7419.487660	4072.642833	919.497070	59.859291
-7419.487660	4072.642833	918.331055	93.757790
-7419.487660	4072.642833	917.165039	85.262512
-7419.487660	4072.642833	915.999023	2.000144
-7419.487660	4072.642833	914.833008	-118.606758
-7419.487660	4072.642833	913.666016	-87.195358
-7419.487660	4072.642833	912.499023	58.777180
-7419.487660	4072.642833	911.332031	-148.928207
-7419.487660	4072.642833	910.165039	29.362503
-7419.487660	4072.642833	908.997070	-101.084541
-7419.487660	4072.642833	907.830078	-97.089638
-7419.487660	4072.642833	906.661133	-40.838127
-7419.487660	4072.642833	905.493164	52.703362
-7419.487660	4072.642833	904.325195	44.231144
-7419.487660	4072.642833	903.156250	-8.996453
-7419.487660	4072.642833	901.987305	24.815825
-7419.487660	4072.642833	900.818359	21.329290
-7419.487660	4072.642833	899.648438	-86.531235
-7419.487660	4072.642833	898.478516	4.428913
-7419.487660	4072.642833	897.308594	68.026802
-7419.487660	4072.642833	896.138672	-5.002057
-7419.487660	4072.642833	894.968750	46.158913
-7419.487660	4072.642833	893.797852	-14.417039
-7419.487660	4072.642833	892.626953	-50.145130
-7419.487660	4072.642833	891.456055	152.382523
-7419.487660	4072.642833	890.284180	-79.368774
-7419.487660	4072.642833	889.113281	-194.435654
-7419.487660	4072.642833	887.941406	-123.440819
-7419.487660	4072.642833	886.768555	-10.316278
-7419.487660	4072.642833	885.596680	-28.630426
-7419.487660	4072.642833	884.423828	99.305542
-7419.487660	4072.642833	883.250977	-82.571075
-7419.487660	4072.642833	882.078125	55.240829
-7419.487660	4072.642833	880.905273	7.216965
-7419.487660	4072.642833	879.731445	-20.968357
-7419.487660	4072.642833	878.557617	30.095766
-7419.487660	4072.642833	877.383789	-30.258516
-7419.487660	4072.642833	876.209961	-28.707359
-7419.487660	4072.642833	875.035156	-4.879681
-7419.487660	4072.642833	873.860352	33.786766
-7419.487660	4072.642833	872.685547	-100.707428
-7419.487660	4072.642833	871.510742	2.270168
-7419.487660	4072.642833	870.334961	144.772751
-7419.487660	4072.642833	869.159180	-53.919182
-7419.487660	4072.642833	867.983398	34.171986
-7419.487660	4072.642833	866.807617	43.159138
-7419.487660	4072.642833	865.630859	44.737568
-7419.487660	4072.642833	864.454102	-99.409920
-7419.487660	4072.642833	863.277344	97.297302
-7419.487660	4072.642833	862.100586	79.126404
-7419.487660	4072.642833	860.922852	97.997780
-7419.487660	4072.642833	859.745117	-122.528374
-7419.487660	4072.642833	858.567383	115.992348
-7419.487660	4072.642833	857.389648	-5.757871
-7419.487660	4072.642833	856.210938	37.802483
-7419.487660	4072.642833	855.032227	88.748245
-7419.487660	4072.642833	853.853516	70.645859
-7419.487660	4072.642833	852.674805	30.371336
-7419.487660	4072.642833	851.495117	-17.271633
-7419.487660	4072.642833	850.315430	-79.673584
-7419.487660	4072.642833	849.135742	-82.922386
-7419.487660	4072.642833	847.956055	-137.885696
-7419.487660	4072.642833	846.775391	68.197693
-7419.487660	4072.642833	845.595703	-102.472908
-7419.487660	4072.642833	844.415039	-98.305283
-7419.487660	4072.642833	843.233398	-17.844343
-7419.487660	4072.642833	842.052734	37.983204
-7419.487660	4072.642833	840.871094	-80.856384
-7419.487660	4072.642833	839.689453	-64.375793
-7419.487660	4072.642833	838.506836	94.720352
-7419.487660	4072.642833	837.325195	-11.749084
-7419.487660	4072.642833	836.142578	-150.119614
-7419.487660	4072.642833	834.959961	-140.985962
-7419.487660	4072.642833	833.777344	-21.292521
-7419.487660	4072.642833	832.593750	34.494373
-7419.487660	4072.642833	831.410156	-44.807945
-7419.487660	4072.642833	830.226563	-111.795227
-7419.487660	4072.642833	829.042969	-14.276131
-7419.487660	4072.642833	827.858398	-19.871780
-7419.487660	4072.642833	826.673828	-57.359116
-7419.487660	4072.642833	825.489258	-80.106369
-7419.487660	4072.642833	824.304688	-139.631195
-7419.487660	4072.642833	823.120117	55.912502
-7419.487660	4072.642833	821.934570	-72.254112
-7419.487660	4072.642833	820.749023	-114.567696
-7419.487660	4072.642833	819.562500	-9.810516
-7419.487660	4072.642833	818.376953	-39.859238
-7419.487660	4072.642833	817.190430	-55.190430
-7419.487660	4072.642833	816.003906	17.663034
-7419.487660	4072.642833	814.817383	61.104851
-7419.487660	4072.642833	813.629883	-125.599907
-7419.487660	4072.642833	812.442383	89.206291
-7419.487660	4072.642833	811.254883	-70.499626
-7419.487660	4072.642833	810.067383	-44.184109
-7419.487660	4072.642833	808.878906	-152.416565
-7419.487660	4072.642833	807.690430	-18.474058
-7419.487660	4072.642833	806.501953	-48.412891
-7419.487660	4072.642833	805.313477	4.783374
-7419.487660	4072.642833	804.124023	-54.469810
-7419.487660	4072.642833	802.934570	130.673996
-7419.487660	4072.642833	801.745117	-60.508053
-7419.487660	4072.642833	800.555664	-31.766598
-7419.487660	4072.642833	799.365234	-105.604187
-7419.487660	4072.642833	798.175781	28.131165
-7419.487660	4072.642833	796.985352	42.198235
-7419.487660	4072.642833	795.793945	-156.074570
-7419.487660	4072.642833	794.603516	155.727432
-7419.487660	4072.642833	793.412109	-27.846003
-7419.487660	4072.642833	792.220703	-30.845455
-7419.487660	4072.642833	791.028320	51.512630
-7419.487660	4072.642833	789.836914	97.262535
-7419.487660	4072.642833	788.644531	-30.075779
-7419.487660	4072.642833	787.452148	37.609188
-7419.487660	4072.642833	786.258789	51.662987
-7419.487660	4072.642833	785.066406	31.602299
-7419.487660	4072.642833	783.873047	118.719040
-7419.487660	4072.642833	782.679688	62.127621
-7419.487660	4072.642833	781.485352	100.510483
-7419.487660	4072.642833	780.291992	-111.838852
-7419.487660	4072.642833	779.097656	-100.208084
-7419.487660	4072.642833	777.903320	-69.119530
-7419.487660	4072.642833	776.708008	-28.313145
-7419.487660	4072.642833	775.512695	-55.624241
-7419.487660	4072.642833	774.318359	19.196835
-7419.487660	4072.642833	773.122070	21.056726
-7419.487660	4072.642833	771.926758	107.979851
-7419.487660	4072.642833	770.730469	5.321502
-7419.487660	4072.642833	769.534180	21.749773
-7419.487660	4072.642833	768.337891	9.018269
-7419.487660	4072.642833	767.141602	98.286835
-7419.487660	4072.642833	765.944336	97.678238
-7419.487660	4072.642833	764.747070	-29.166761
-7419.487660	4072.642833	763.549805	191.100143
-7419.487660	4072.642833	762.351563	-156.533569
-7419.487660	4072.642833	761.154297	-9.124416
-7419.487660	4072.642833	759.956055	-24.289396
-7419.487660	4072.642833	758.757813	132.720154
-7419.487660	4072.642833	757.558594	107.822350
-7419.487660	4072.642833	756.359375	19.903545
-7419.487660	4072.642833	755.160156	-2.552223
-7419.487660	4072.642833	753.960938	67.066505
-7419.487660	4072.642833	752.761719	10.678807
-7419.487660	4072.642833	751.561523	0.325298
-7419.487660	4072.642833	750.361328	9.338648
-7419.487660	4072.642833	749.160156	199.913254
-7419.487660	4072.642833	747.959961	-6.559541
-7419.487660	4072.642833	746.758789	58.080894
-7419.487660	4072.642833	745.557617	202.525162
-7419.487660	4072.642833	744.356445	126.774338
-7419.487660	4072.642833	743.154297	-4.578791
-7419.487660	4072.642833	741.952148	64.799942
-7419.487660	4072.642833	740.750000	15.682600
-7419.487660	4072.642833	739.547852	17.329058
-7419.487660	4072.642833	738.344727	-14.866705
-7419.487660	4072.642833	737.142578	90.643059
-7419.487660	4072.642833	735.939453	94.649139
-7419.487660	4072.642833	734.735352	55.173073
-7419.487660	4072.642833	733.532227	172.632782
-7419.487660	4072.642833	732.328125	29.329235
-7419.487660	4072.642833	731.124023	83.968262
-7419.487660	4072.642833	729.918945	99.964249
-7419.487660	4072.642833	728.714844	149.708359
-7419.487660	4072.642833	727.509766	168.061996
-7419.487660	4072.642833	726.303711	376.891388
-7419.487660	4072.642833	725.098633	76.919823
-7419.487660	4072.642833	723.892578	133.791809
-7419.487660	4072.642833	722.686523	94.226425
-7419.487660	4072.642833	721.480469	11.290645
-7419.487660	4072.642833	720.274414	22.314610
-7419.487660	4072.642833	719.067383	-26.892431
-7419.487660	4072.642833	717.860352	-32.758293
-7419.487660	4072.642833	716.653320	86.539352
-7419.487660	4072.642833	715.445313	133.562149
-7419.487660	4072.642833	714.238281	60.225040
-7419.487660	4072.642833	713.030273	196.205444
-7419.487660	4072.642833	711.821289	74.738716
-7419.487660	4072.642833	710.613281	188.969406
-7419.487660	4072.642833	709.404297	9.804311
-7419.487660	4072.642833	708.195313	25.399231
-7419.487660	4072.642833	706.986328	-201.771164
-7419.487660	4072.642833	705.776367	37.274036
-7419.487660	4072.642833	704.566406	45.573036
-7419.487660	4072.642833	703.356445	29.825106
-7419.487660	4072.642833	702.146484	-41.172821
-7419.487660	4072.642833	700.935547	5.472678
-7419.487660	4072.642833	699.724609	160.084076
-7419.487660	4072.642833	698.513672	17.030556
-7419.487660	4072.642833	697.302734	-42.016422
-7419.487660	4072.642833	696.090820	38.062542
-7419.487660	4072.642833	694.878906	163.646164
-7419.487660	4072.642833	693.666992	87.735481
-7419.487660	4072.642833	692.455078	119.703613
-7419.487660	4072.642833	691.242188	139.645447
-7419.487660	4072.642833	690.029297	133.189316
-7419.487660	4072.642833	688.816406	157.848953
-7419.487660	4072.642833	687.602539	170.492142
-7419.487660	4072.642833	686.389648	197.464569
-7419.487660	4072.642833	685.175781	90.317604
-7419.487660	4072.642833	683.960938	191.438477
-7419.487660	4072.642833	682.747070	278.122223
-7419.487660	4072.642833	681.532227	192.461121
-7419.487660	4072.642833	680.317383	183.352264
-7419.487660	4072.642833	679.102539	332.066223
-7419.487660	4072.642833	677.886719	143.522369
-7419.487660	4072.642833	676.670898	423.601288
-7419.487660	4072.642833	675.455078	270.898743
-7419.487660	4072.642833	674.239258	335.686859
-7419.487660	4072.642833	673.022461	206.887299
-7419.487660	4072.642833	671.805664	176.040436
-7419.487660	4072.642833	670.588867	245.473541
-7419.487660	4072.642833	669.372070	145.313187
-7419.487660	4072.642833	668.154297	150.193344
-7419.487660	4072.642833	666.936523	69.112076
-7419.487660	4072.642833	665.718750	183.692535
-7419.487660	4072.642833	664.500977	236.157043
-7419.487660	4072.642833	663.282227	154.991013
-7419.487660	4072.642833	662.063477	212.129166
-7419.487660	4072.642833	660.844727	104.695175
-7419.487660	4072.642833	659.625000	111.681709
-7419.487660	4072.642833	658.405273	-5.300624
-7419.487660	4072.642833	657.185547	101.694145
-7419.487660	4072.642833	655.965820	215.748215
-7419.487660	4072.642833	654.745117	298.750122
-7419.487660	4072.642833	653.525391	174.514099
-7419.487660	4072.642833	652.303711	147.894318
-7419.487660	4072.642833	651.083008	195.026230
-7419.487660	4072.642833	649.861328	204.020615
-7419.487660	4072.642833	648.640625	153.487885
-7419.487660	4072.642833	647.417969	188.563553
-7419.487660	4072.642833	646.196289	147.478745
-7419.487660	4072.642833	644.973633	260.912323
-7419.487660	4072.642833	643.750977	141.294235
-7419.487660	4072.642833	642.528320	57.330288
-7419.487660	4072.642833	641.305664	168.197479
-7419.487660	4072.642833	640.082031	153.064285
-7419.487660	4072.642833	638.858398	-42.617683
-7419.487660	4072.642833	637.634766	222.409637
-7419.487660	4072.642833	636.410156	154.903519
-7419.487660	4072.642833	635.185547	30.412365
-7419.487660	4072.642833	633.960938	152.728470
-7419.487660	4072.642833	632.736328	30.567455
-7419.487660	4072.642833	631.510742	76.829041
-7419.487660	4072.642833	630.285156	258.202942
-7419.487660	4072.642833	629.059570	43.480015
-7419.487660	4072.642833	627.833984	160.681595
-7419.487660	4072.642833	626.607422	62.106667
-7419.487660	4072.642833	625.380859	-17.518713
-7419.487660	4072.642833	624.154297	-54.515965
-7419.487660	4072.642833	622.927734	31.619190
-7419.487660	4072.642833	621.700195	115.299896
-7419.487660	4072.642833	620.472656	146.808533
-7419.487660	4072.642833	619.245117	298.975098
-7419.487660	4072.642833	618.016602	46.343487
-7419.487660	4072.642833	616.788086	125.018509
-7419.487660	4072.642833	615.559570	144.470795
-7419.487660	4072.642833	614.331055	241.911743
-7419.487660	4072.642833	613.101563	124.085815
-7419.487660	4072.642833	611.872070	98.457382
-7419.487660	4072.642833	610.642578	34.973202
-7419.487660	4072.642833	609.413086	-7.267612
-7419.487660	4072.642833	608.182617	61.498837
-7419.487660	4072.642833	606.952148	-11.537793
-7419.487660	4072.642833	605.721680	191.707001
-7419.487660	4072.642833	604.491211	83.157555
-7419.487660	4072.642833	603.259766	-77.329071
-7419.487660	4072.642833	602.028320	-1.794477
-7419.487660	4072.642833	600.796875	-18.364077
-7419.487660	4072.642833	599.564453	123.077385
-7419.487660	4072.642833	598.332031	96.952339
-7419.487660	4072.642833	597.099609	-23.533062
-7419.487660	4072.642833	595.867188	21.009481
-7419.487660	4072.642833	594.633789	-0.514852
-7419.487660	4072.642833	593.400391	50.971844
-7419.487660	4072.642833	592.166992	-62.534679
-7419.487660	4072.642833	590.933594	-53.555752
-7419.487660	4072.642833	589.699219	117.864967
-7419.487660	4072.642833	588.464844	37.229416
-7419.487660	4072.642833	587.230469	-22.235172
-7419.487660	4072.642833	585.995117	73.607155
-7419.487660	4072.642833	584.760742	124.653526
-7419.487660	4072.642833	583.525391	86.232262
-7419.487660	4072.642833	582.289063	45.425030
-7419.487660	4072.642833	581.053711	164.491043
-7419.487660	4072.642833	579.817383	-48.036022
-7419.487660	4072.642833	578.581055	0.385731
-7419.487660	4072.642833	577.343750	140.387665
-7419.487660	4072.642833	576.107422	94.673172
-7419.487660	4072.642833	574.870117	25.438784
-7419.487660	4072.642833	573.631836	94.746719
-7419.487660	4072.642833	572.394531	41.884106
-7419.487660	4072.642833	571.156250	21.860777
-7419.487660	4072.642833	569.917969	51.086613
-7419.487660	4072.642833	568.679688	-112.158745
-7419.487660	4072.642833	567.440430	-101.778297
-7419.487660	4072.642833	566.202148	117.303574
-7419.487660	4072.642833	564.961914	146.298431
-7419.487660	4072.642833	563.722656	8.779185
-7419.487660	4072.642833	562.482422	152.551620
-7419.487660	4072.642833	561.243164	122.802521
-7419.487660	4072.642833	560.001953	15.699618
-7419.487660	4072.642833	558.761719	-49.233543
-7419.487660	4072.642833	557.520508	110.647469
-7419.487660	4072.642833	556.279297	-29.292887
-7419.487660	4072.642833	555.038086	95.315971
-7419.487660	4072.642833	553.795898	46.632286
-7419.487660	4072.642833	552.554688	-32.489162
-7419.487660	4072.642833	551.311523	3.012792
-7419.487660	4072.642833	550.069336	167.105774
-7419.487660	4072.642833	548.826172	15.391356
-7419.487660	4072.642833	547.583984	-17.057646
-7419.487660	4072.642833	546.339844	18.250759
-7419.487660	4072.642833	545.096680	-0.242760
-7419.487660	4072.642833	543.852539	18.615402
-7419.487660	4072.642833	542.608398	2.388860
-7419.487660	4072.642833	541.364258	-72.254868
-7419.487660	4072.642833	540.119141	-81.525932
-7419.487660	4072.642833	538.875000	-37.133312
-7419.487660	4072.642833	537.628906	16.536024
-7419.487660	4072.642833	536.383789	0.145526
-7419.487660	4072.642833	535.137695	28.052071
-7419.487660	4072.642833	533.892578	-109.689911
-7419.487660	4072.642833	532.645508	-147.137115
-7419.487660	4072.642833	531.399414	29.898626
-7419.487660	4072.642833	530.152344	-54.246490
-7419.487660	4072.642833	528.905273	-117.412346
-7419.487660	4072.642833	527.658203	-108.353256
-7419.487660	4072.642833	526.410156	-122.625816
-7419.487660	4072.642833	525.163086	-81.023888
-7419.487660	4072.642833	523.914063	-37.146637
-7419.487660	4072.642833	522.666016	-214.471909
-7419.487660	4072.642833	521.416992	-47.285416
-7419.487660	4072.642833	520.167969	-154.782349
-7419.487660	4072.642833	518.918945	-176.180923
-7419.487660	4072.642833	517.669922	-90.601196
-7419.487660	4072.642833	516.419922	-72.526688
-7419.487660	4072.642833	515.169922	-135.860535
-7419.487660	4072.642833	513.919922	-159.675476
-7419.487660	4072.642833	512.668945	-132.380859
-7419.487660	4072.642833	511.417969	-54.005283
-7419.487660	4072.642833	510.166992	-122.035561
-7419.487660	4072.642833	508.916016	-15.873048
-7419.487660	4072.642833	507.664063	-44.457500
-7419.487660	4072.642833	506.412109	-114.838966
-7419.487660	4072.642833	505.160156	-127.187393
-7419.487660	4072.642833	503.907227	-67.619865
-7419.487660	4072.642833	502.655273	-40.575706
-7419.487660	4072.642833	501.402344	102.407692
-7419.487660	4072.642833	500.148438	129.356079
-7419.487660	4072.642833	498.895508	3.255946
-7419.487660	4072.642833	497.641602	150.710403
-7419.487660	4072.642833	496.387695	-65.764694
-7419.487660	4072.642833	495.132813	16.723631
-7419.487660	4072.642833	493.878906	117.693138
-7419.487660	4072.642833	492.624023	-26.898268
-7419.487660	4072.642833	491.368164	-132.085037
-7419.487660	4072.642833	490.113281	12.778552
-7419.487660	4072.642833	488.857422	37.204926
-7419.487660	4072.642833	487.601563	22.265059
-7419.487660	4072.642833	486.344727	-1.943261
-7419.487660	4072.642833	485.088867	40.922436
-7419.487660	4072.642833	483.832031	-80.439102
-7419.487660	4072.642833	482.575195	40.995667
-7419.487660	4072.642833	481.317383	99.946915
-7419.487660	4072.642833	480.059570	191.209625
-7419.487660	4072.642833	478.801758	51.364311
-7419.487660	4072.642833	477.543945	98.673119
-7419.487660	4072.642833	476.285156	122.846260
-7419.487660	4072.642833	475.027344	1.525913
-7419.487660	4072.642833	473.767578	32.596226
-7419.487660	4072.642833	472.508789	-37.914787
-7419.487660	4072.642833	471.249023	48.494713
-7419.487660	4072.642833	469.989258	24.110680
-7419.487660	4072.642833	468.729492	78.140739
-7419.487660	4072.642833	467.469727	125.209457
-7419.487660	4072.642833	466.208984	50.041233
-7419.487660	4072.642833	464.948242	-25.115259
-7419.487660	4072.642833	463.686523	116.362671
-7419.487660	4072.642833	462.425781	-7.203361
-7419.487660	4072.642833	461.164063	9.773794
-7419.487660	4072.642833	459.901367	-19.343895
-7419.487660	4072.642833	458.639648	87.380333
-7419.487660	4072.642833	457.376953	-1.644399
-7419.487660	4072.642833	456.114258	45.134949
-7419.487660	4072.642833	454.851563	36.641647
-7419.487660	4072.642833	453.587891	14.316085
-7419.487660	4072.642833	452.324219	203.576859
-7419.487660	4072.642833	451.060547	40.891464
-7419.487660	4072.642833	449.796875	-91.867920
-7419.487660	4072.642833	448.532227	76.505783
-7419.487660	4072.642833	447.267578	14.963650
-7419.487660	4072.642833	446.002930	-124.705879
-7419.487660	4072.642833	444.737305	87.095535
-7419.487660	4072.642833	443.471680	80.589767
-7419.487660	4072.642833	442.206055	67.156288
-7419.487660	4072.642833	440.940430	129.438660
-7419.487660	4072.642833	439.673828	-5.733881
-7419.487660	4072.642833	438.407227	-101.888733
-7419.487660	4072.642833	437.140625	91.004059
-7419.487660	4072.642833	435.873047	54.395393
-7419.487660	4072.642833	434.605469	118.643867
-7419.487660	4072.642833	433.337891	6.274700
-7419.487660	4072.642833	432.070313	-69.433090
-7419.487660	4072.642833	430.801758	118.359444
-7419.487660	4072.642833	429.533203	125.004715
-7419.487660	4072.642833	428.264648	72.021118
-7419.487660	4072.642833	426.996094	60.208660
-7419.487660	4072.642833	425.726563	87.243935
-7419.487660	4072.642833	424.457031	153.102081
-7419.487660	4072.642833	423.186523	40.328922
-7419.487660	4072.642833	421.916992	103.708443
-7419.487660	4072.642833	420.646484	91.470818
-7419.487660	4072.642833	419.375977	207.223160
-7419.487660	4072.642833	418.104492	210.773605
-7419.487660	4072.642833	416.833008	104.482040
-7419.487660	4072.642833	415.561523	32.411293
-7419.487660	4072.642833	414.290039	149.926788
-7419.487660	4072.642833	413.017578	27.376169
-7419.487660	4072.642833	411.746094	48.662537
-7419.487660	4072.642833	410.472656	83.501060
-7419.487660	4072.642833	409.200195	83.946701
-7419.487660	4072.642833	407.926758	-34.454388
-7419.487660	4072.642833	406.653320	47.881561
-7419.487660	4072.642833	405.379883	29.634621
-7419.487660	4072.642833	404.105469	72.822266
-7419.487660	4072.642833	402.831055	10.912776
-7419.487660	4072.642833	401.556641	83.390282
-7419.487660	4072.642833	400.282227	-42.678761
-7419.487660	4072.642833	399.006836	184.393143
-7419.487660	4072.642833	397.731445	124.052925
-7419.487660	4072.642833	396.456055	65.815079
-7419.487660	4072.642833	395.179688	-54.113041
-7419.487660	4072.642833	393.903320	42.131237
-7419.487660	4072.642833	392.626953	24.270699
-7419.487660	4072.642833	391.350586	104.062073
-7419.487660	4072.642833	390.073242	-155.520905
-7419.487660	4072.642833	388.795898	137.645813
-7419.487660	4072.642833	387.518555	218.869461
-7419.487660	4072.642833	386.240234	120.110153
-7419.487660	4072.642833	384.961914	-12.994620
-7419.487660	4072.642833	383.683594	181.019241
-7419.487660	4072.642833	382.405273	106.457375
-7419.487660	4072.642833	381.125977	-38.835873
-7419.487660	4072.642833	379.846680	63.236126
-7419.487660	4072.642833	378.567383	15.021568
-7419.487660	4072.642833	377.287109	89.094559
-7419.487660	4072.642833	376.006836	153.693619
-7419.487660	4072.642833	374.726563	63.544384
-7419.487660	4072.642833	373.446289	57.014805
-7419.487660	4072.642833	372.165039	72.767349
-7419.487660	4072.642833	370.883789	90.369865
-7419.487660	4072.642833	369.602539	209.592102
-7419.487660	4072.642833	368.320313	90.239021
-7419.487660	4072.642833	367.039063	9.032033
-7419.487660	4072.642833	365.755859	83.745949
-7419.487660	4072.642833	364.473633	-111.683784
-7419.487660	4072.642833	363.190430	45.857967
-7419.487660	4072.642833	361.907227	-89.356178
-7419.487660	4072.642833	360.624023	-80.122589
-7419.487660	4072.642833	359.340820	87.030022
-7419.487660	4072.642833	358.056641	117.723198
-7419.487660	4072.642833	356.772461	-62.632809
-7419.487660	4072.642833	355.487305	55.109608
-7419.487660	4072.642833	354.202148	108.844048
-7419.487660	4072.642833	352.916992	17.181723
-7419.487660	4072.642833	351.631836	-57.013672
-7419.487660	4072.642833	350.346680	-23.356417
-7419.487660	4072.642833	349.060547	-101.171425
-7419.487660	4072.642833	347.774414	152.466217
-7419.487660	4072.642833	346.487305	120.598145
-7419.487660	4072.642833	345.200195	-45.273521
-7419.487660	4072.642833	343.913086	-150.896896
-7419.487660	4072.642833	342.625977	0.067818
-7419.487660	4072.642833	341.338867	32.766998
-7419.487660	4072.642833	340.050781	-0.870274
-7419.487660	4072.642833	338.762695	-132.386993
-7419.487660	4072.642833	337.473633	-14.417596
-7419.487660	4072.642833	336.184570	52.951611
-7419.487660	4072.642833	334.895508	-117.399445
-7419.487660	4072.642833	333.606445	-157.932220
-7419.487660	4072.642833	332.317383	-34.955421
-7419.487660	4072.642833	331.027344	-176.715591
-7419.487660	4072.642833	329.736328	-215.900574
-7419.487660	4072.642833	328.446289	-26.433409
-7419.487660	4072.642833	327.155273	134.765289
-7419.487660	4072.642833	325.864258	-148.740784
-7419.487660	4072.642833	324.573242	5.546395
-7419.487660	4072.642833	323.281250	-50.759647
-7419.487660	4072.642833	321.989258	-148.799255
-7419.487660	4072.642833	320.697266	-108.649704
-7419.487660	4072.642833	319.405273	-54.109612
-7419.487660	4072.642833	318.112305	-3.247022
-7419.487660	4072.642833	316.819336	5.729808
-7419.487660	4072.642833	315.526367	-4.716279
-7419.487660	4072.642833	314.232422	-81.831169
-7419.487660	4072.642833	312.938477	-57.106476
-7419.487660	4072.642833	311.644531	-27.213491
-7419.487660	4072.642833	310.349609	99.814293
-7419.487660	4072.642833	309.054688	97.198151
-7419.487660	4072.642833	307.759766	249.997757
-7419.487660	4072.642833	306.464844	77.910149
-7419.487660	4072.642833	305.168945	332.542389
-7419.487660	4072.642833	303.873047	251.080643
-7419.487660	4072.642833	302.577148	235.066086
-7419.487660	4072.642833	301.281250	430.124908
-7419.487660	4072.642833	299.984375	558.097229
