#X		#Y		#Wave		#Intensity
-7234.911223	3807.083167	1999.946289	-126.209564
-7234.911223	3807.083167	1998.981445	96.384239
-7234.911223	3807.083167	1998.017578	-50.001095
-7234.911223	3807.083167	1997.052734	-13.109637
-7234.911223	3807.083167	1996.088867	130.150238
-7234.911223	3807.083167	1995.124023	-68.645126
-7234.911223	3807.083167	1994.159180	-37.175991
-7234.911223	3807.083167	1993.193359	-33.096745
-7234.911223	3807.083167	1992.228516	-108.383308
-7234.911223	3807.083167	1991.262695	-168.919891
-7234.911223	3807.083167	1990.296875	79.799980
-7234.911223	3807.083167	1989.331055	125.399834
-7234.911223	3807.083167	1988.365234	34.796093
-7234.911223	3807.083167	1987.398438	-63.309525
-7234.911223	3807.083167	1986.432617	-146.651764
-7234.911223	3807.083167	1985.465820	106.204430
-7234.911223	3807.083167	1984.499023	-21.845623
-7234.911223	3807.083167	1983.532227	-21.420139
-7234.911223	3807.083167	1982.565430	99.999298
-7234.911223	3807.083167	1981.597656	1.383774
-7234.911223	3807.083167	1980.629883	38.583755
-7234.911223	3807.083167	1979.662109	65.804909
-7234.911223	3807.083167	1978.694336	-10.780394
-7234.911223	3807.083167	1977.726563	73.066551
-7234.911223	3807.083167	1976.758789	18.571678
-7234.911223	3807.083167	1975.790039	-105.080055
-7234.911223	3807.083167	1974.821289	237.614197
-7234.911223	3807.083167	1973.852539	249.523666
-7234.911223	3807.083167	1972.883789	27.035112
-7234.911223	3807.083167	1971.915039	142.436584
-7234.911223	3807.083167	1970.945313	65.409416
-7234.911223	3807.083167	1969.975586	37.661510
-7234.911223	3807.083167	1969.005859	-7.380653
-7234.911223	3807.083167	1968.036133	11.616585
-7234.911223	3807.083167	1967.066406	102.013176
-7234.911223	3807.083167	1966.096680	352.454163
-7234.911223	3807.083167	1965.125977	164.349670
-7234.911223	3807.083167	1964.155273	-26.188194
-7234.911223	3807.083167	1963.184570	-73.892548
-7234.911223	3807.083167	1962.213867	-89.613731
-7234.911223	3807.083167	1961.242188	57.070724
-7234.911223	3807.083167	1960.271484	129.851501
-7234.911223	3807.083167	1959.299805	54.959900
-7234.911223	3807.083167	1958.328125	107.976578
-7234.911223	3807.083167	1957.356445	-80.064354
-7234.911223	3807.083167	1956.384766	172.076248
-7234.911223	3807.083167	1955.412109	-40.538063
-7234.911223	3807.083167	1954.439453	2.531627
-7234.911223	3807.083167	1953.467773	107.007477
-7234.911223	3807.083167	1952.495117	-46.563534
-7234.911223	3807.083167	1951.521484	16.083769
-7234.911223	3807.083167	1950.548828	12.380190
-7234.911223	3807.083167	1949.575195	52.865627
-7234.911223	3807.083167	1948.601563	120.332306
-7234.911223	3807.083167	1947.627930	212.311844
-7234.911223	3807.083167	1946.654297	-54.077259
-7234.911223	3807.083167	1945.680664	-33.277134
-7234.911223	3807.083167	1944.706055	56.202820
-7234.911223	3807.083167	1943.732422	-38.323044
-7234.911223	3807.083167	1942.757813	127.141769
-7234.911223	3807.083167	1941.783203	-102.230927
-7234.911223	3807.083167	1940.807617	102.401817
-7234.911223	3807.083167	1939.833008	-97.470016
-7234.911223	3807.083167	1938.857422	-111.021034
-7234.911223	3807.083167	1937.881836	27.345232
-7234.911223	3807.083167	1936.906250	-84.209236
-7234.911223	3807.083167	1935.930664	103.089798
-7234.911223	3807.083167	1934.955078	-118.627991
-7234.911223	3807.083167	1933.978516	85.752533
-7234.911223	3807.083167	1933.001953	-84.466331
-7234.911223	3807.083167	1932.025391	-68.611076
-7234.911223	3807.083167	1931.048828	84.276917
-7234.911223	3807.083167	1930.072266	38.944321
-7234.911223	3807.083167	1929.094727	128.168213
-7234.911223	3807.083167	1928.118164	24.165556
-7234.911223	3807.083167	1927.140625	0.897145
-7234.911223	3807.083167	1926.163086	-17.462934
-7234.911223	3807.083167	1925.184570	13.075202
-7234.911223	3807.083167	1924.207031	-117.676987
-7234.911223	3807.083167	1923.228516	-79.782181
-7234.911223	3807.083167	1922.250000	75.367142
-7234.911223	3807.083167	1921.271484	47.286865
-7234.911223	3807.083167	1920.292969	63.184280
-7234.911223	3807.083167	1919.314453	-177.274384
-7234.911223	3807.083167	1918.334961	153.576431
-7234.911223	3807.083167	1917.355469	42.563732
-7234.911223	3807.083167	1916.375977	-148.919754
-7234.911223	3807.083167	1915.396484	-174.421768
-7234.911223	3807.083167	1914.416992	31.825348
-7234.911223	3807.083167	1913.436523	84.362068
-7234.911223	3807.083167	1912.457031	-31.351366
-7234.911223	3807.083167	1911.476563	-61.686256
-7234.911223	3807.083167	1910.496094	-87.123459
-7234.911223	3807.083167	1909.515625	40.989330
-7234.911223	3807.083167	1908.534180	88.659332
-7234.911223	3807.083167	1907.552734	170.429016
-7234.911223	3807.083167	1906.572266	-132.644547
-7234.911223	3807.083167	1905.590820	-16.750044
-7234.911223	3807.083167	1904.608398	-0.710811
-7234.911223	3807.083167	1903.626953	-45.521137
-7234.911223	3807.083167	1902.644531	106.831505
-7234.911223	3807.083167	1901.663086	52.305855
-7234.911223	3807.083167	1900.680664	-80.041595
-7234.911223	3807.083167	1899.698242	43.074524
-7234.911223	3807.083167	1898.714844	100.490463
-7234.911223	3807.083167	1897.732422	-92.549049
-7234.911223	3807.083167	1896.749023	-22.955303
-7234.911223	3807.083167	1895.765625	-50.601215
-7234.911223	3807.083167	1894.782227	48.138870
-7234.911223	3807.083167	1893.798828	73.959930
-7234.911223	3807.083167	1892.814453	-2.249091
-7234.911223	3807.083167	1891.831055	-20.130402
-7234.911223	3807.083167	1890.846680	-42.855011
-7234.911223	3807.083167	1889.862305	24.267483
-7234.911223	3807.083167	1888.877930	-54.274059
-7234.911223	3807.083167	1887.892578	-84.241119
-7234.911223	3807.083167	1886.908203	-12.276036
-7234.911223	3807.083167	1885.922852	-71.341805
-7234.911223	3807.083167	1884.937500	0.602463
-7234.911223	3807.083167	1883.952148	-24.480791
-7234.911223	3807.083167	1882.965820	59.559040
-7234.911223	3807.083167	1881.980469	187.208389
-7234.911223	3807.083167	1880.994141	-36.637302
-7234.911223	3807.083167	1880.007813	-1.099353
-7234.911223	3807.083167	1879.021484	78.038544
-7234.911223	3807.083167	1878.035156	62.675282
-7234.911223	3807.083167	1877.047852	59.426285
-7234.911223	3807.083167	1876.061523	24.701736
-7234.911223	3807.083167	1875.074219	-19.695736
-7234.911223	3807.083167	1874.086914	40.008995
-7234.911223	3807.083167	1873.098633	34.344410
-7234.911223	3807.083167	1872.111328	-80.204155
-7234.911223	3807.083167	1871.123047	-20.526466
-7234.911223	3807.083167	1870.135742	-188.240707
-7234.911223	3807.083167	1869.147461	144.700836
-7234.911223	3807.083167	1868.158203	-93.108681
-7234.911223	3807.083167	1867.169922	-86.672180
-7234.911223	3807.083167	1866.180664	161.454483
-7234.911223	3807.083167	1865.192383	-64.155449
-7234.911223	3807.083167	1864.203125	34.065208
-7234.911223	3807.083167	1863.213867	16.291935
-7234.911223	3807.083167	1862.223633	80.633202
-7234.911223	3807.083167	1861.234375	-94.112137
-7234.911223	3807.083167	1860.244141	95.749992
-7234.911223	3807.083167	1859.253906	220.359924
-7234.911223	3807.083167	1858.263672	86.683868
-7234.911223	3807.083167	1857.273438	-51.777813
-7234.911223	3807.083167	1856.282227	164.429977
-7234.911223	3807.083167	1855.291992	11.511429
-7234.911223	3807.083167	1854.300781	-28.021107
-7234.911223	3807.083167	1853.309570	-115.773346
-7234.911223	3807.083167	1852.317383	-15.477752
-7234.911223	3807.083167	1851.326172	125.739899
-7234.911223	3807.083167	1850.333984	-174.091553
-7234.911223	3807.083167	1849.342773	-85.930855
-7234.911223	3807.083167	1848.350586	153.935364
-7234.911223	3807.083167	1847.357422	49.296501
-7234.911223	3807.083167	1846.365234	240.855026
-7234.911223	3807.083167	1845.372070	157.872086
-7234.911223	3807.083167	1844.379883	274.684967
-7234.911223	3807.083167	1843.386719	222.973709
-7234.911223	3807.083167	1842.393555	19.678638
-7234.911223	3807.083167	1841.399414	11.295660
-7234.911223	3807.083167	1840.406250	89.483536
-7234.911223	3807.083167	1839.412109	-51.212639
-7234.911223	3807.083167	1838.417969	156.745224
-7234.911223	3807.083167	1837.423828	-51.262589
-7234.911223	3807.083167	1836.429688	103.695961
-7234.911223	3807.083167	1835.434570	63.933060
-7234.911223	3807.083167	1834.440430	213.959320
-7234.911223	3807.083167	1833.445313	-34.835693
-7234.911223	3807.083167	1832.450195	-21.789698
-7234.911223	3807.083167	1831.454102	-100.019295
-7234.911223	3807.083167	1830.458984	232.270493
-7234.911223	3807.083167	1829.462891	-47.651043
-7234.911223	3807.083167	1828.466797	58.868717
-7234.911223	3807.083167	1827.470703	64.548958
-7234.911223	3807.083167	1826.474609	94.186989
-7234.911223	3807.083167	1825.478516	-34.511650
-7234.911223	3807.083167	1824.481445	-31.305313
-7234.911223	3807.083167	1823.484375	209.221451
-7234.911223	3807.083167	1822.487305	3.775176
-7234.911223	3807.083167	1821.490234	284.884644
-7234.911223	3807.083167	1820.493164	55.476109
-7234.911223	3807.083167	1819.495117	-109.196198
-7234.911223	3807.083167	1818.498047	257.906616
-7234.911223	3807.083167	1817.500000	-0.206572
-7234.911223	3807.083167	1816.500977	273.285980
-7234.911223	3807.083167	1815.502930	103.772934
-7234.911223	3807.083167	1814.504883	30.026081
-7234.911223	3807.083167	1813.505859	260.178375
-7234.911223	3807.083167	1812.506836	100.224815
-7234.911223	3807.083167	1811.507813	169.935440
-7234.911223	3807.083167	1810.508789	48.251221
-7234.911223	3807.083167	1809.508789	36.567726
-7234.911223	3807.083167	1808.508789	-39.699024
-7234.911223	3807.083167	1807.508789	51.344112
-7234.911223	3807.083167	1806.508789	116.025833
-7234.911223	3807.083167	1805.508789	-27.231405
-7234.911223	3807.083167	1804.508789	20.639387
-7234.911223	3807.083167	1803.507813	-134.569916
-7234.911223	3807.083167	1802.506836	20.680984
-7234.911223	3807.083167	1801.505859	77.941536
-7234.911223	3807.083167	1800.504883	53.977970
-7234.911223	3807.083167	1799.502930	211.364273
-7234.911223	3807.083167	1798.501953	-34.616955
-7234.911223	3807.083167	1797.500000	27.212843
-7234.911223	3807.083167	1796.498047	136.682327
-7234.911223	3807.083167	1795.496094	150.673019
-7234.911223	3807.083167	1794.493164	159.842728
-7234.911223	3807.083167	1793.491211	345.381714
-7234.911223	3807.083167	1792.488281	35.034576
-7234.911223	3807.083167	1791.485352	56.004250
-7234.911223	3807.083167	1790.482422	36.416435
-7234.911223	3807.083167	1789.478516	-33.236275
-7234.911223	3807.083167	1788.475586	161.463425
-7234.911223	3807.083167	1787.471680	29.809534
-7234.911223	3807.083167	1786.467773	-30.416615
-7234.911223	3807.083167	1785.463867	71.197823
-7234.911223	3807.083167	1784.459961	129.888947
-7234.911223	3807.083167	1783.455078	117.124741
-7234.911223	3807.083167	1782.450195	170.929871
-7234.911223	3807.083167	1781.445313	110.497505
-7234.911223	3807.083167	1780.440430	256.934875
-7234.911223	3807.083167	1779.435547	205.924423
-7234.911223	3807.083167	1778.429688	36.023777
-7234.911223	3807.083167	1777.424805	120.453049
-7234.911223	3807.083167	1776.418945	162.024933
-7234.911223	3807.083167	1775.413086	77.614067
-7234.911223	3807.083167	1774.406250	38.315083
-7234.911223	3807.083167	1773.400391	-29.512857
-7234.911223	3807.083167	1772.393555	26.104717
-7234.911223	3807.083167	1771.386719	19.927452
-7234.911223	3807.083167	1770.379883	-55.130695
-7234.911223	3807.083167	1769.373047	31.163582
-7234.911223	3807.083167	1768.365234	171.942749
-7234.911223	3807.083167	1767.358398	32.701363
-7234.911223	3807.083167	1766.350586	166.212204
-7234.911223	3807.083167	1765.342773	45.891518
-7234.911223	3807.083167	1764.334961	22.772436
-7234.911223	3807.083167	1763.326172	156.055618
-7234.911223	3807.083167	1762.318359	26.175549
-7234.911223	3807.083167	1761.309570	187.741547
-7234.911223	3807.083167	1760.300781	135.980637
-7234.911223	3807.083167	1759.291016	129.187057
-7234.911223	3807.083167	1758.282227	207.605316
-7234.911223	3807.083167	1757.272461	30.226177
-7234.911223	3807.083167	1756.262695	30.407784
-7234.911223	3807.083167	1755.252930	56.575943
-7234.911223	3807.083167	1754.243164	92.147682
-7234.911223	3807.083167	1753.233398	-26.127918
-7234.911223	3807.083167	1752.222656	134.712067
-7234.911223	3807.083167	1751.211914	-40.391945
-7234.911223	3807.083167	1750.201172	181.767166
-7234.911223	3807.083167	1749.190430	103.548836
-7234.911223	3807.083167	1748.179688	32.402393
-7234.911223	3807.083167	1747.167969	-31.683056
-7234.911223	3807.083167	1746.156250	-15.460177
-7234.911223	3807.083167	1745.144531	92.837746
-7234.911223	3807.083167	1744.132813	-195.748138
-7234.911223	3807.083167	1743.121094	-66.304619
-7234.911223	3807.083167	1742.108398	77.201180
-7234.911223	3807.083167	1741.095703	-133.474350
-7234.911223	3807.083167	1740.083008	-105.751938
-7234.911223	3807.083167	1739.070313	91.803139
-7234.911223	3807.083167	1738.057617	-15.098978
-7234.911223	3807.083167	1737.043945	-145.600403
-7234.911223	3807.083167	1736.030273	87.070168
-7234.911223	3807.083167	1735.016602	17.804544
-7234.911223	3807.083167	1734.002930	-39.696884
-7234.911223	3807.083167	1732.989258	-134.934875
-7234.911223	3807.083167	1731.974609	-44.029247
-7234.911223	3807.083167	1730.959961	-221.791458
-7234.911223	3807.083167	1729.945313	-62.689037
-7234.911223	3807.083167	1728.930664	56.268497
-7234.911223	3807.083167	1727.916016	-121.552399
-7234.911223	3807.083167	1726.900391	39.646255
-7234.911223	3807.083167	1725.885742	-6.386986
-7234.911223	3807.083167	1724.870117	-90.108231
-7234.911223	3807.083167	1723.853516	-46.795647
-7234.911223	3807.083167	1722.837891	17.631647
-7234.911223	3807.083167	1721.822266	-54.423943
-7234.911223	3807.083167	1720.805664	2.829485
-7234.911223	3807.083167	1719.789063	-12.867207
-7234.911223	3807.083167	1718.772461	-174.340851
-7234.911223	3807.083167	1717.754883	-81.986153
-7234.911223	3807.083167	1716.738281	-29.649466
-7234.911223	3807.083167	1715.720703	48.457558
-7234.911223	3807.083167	1714.703125	77.166832
-7234.911223	3807.083167	1713.685547	-84.394333
-7234.911223	3807.083167	1712.667969	143.814468
-7234.911223	3807.083167	1711.649414	29.159046
-7234.911223	3807.083167	1710.630859	36.549644
-7234.911223	3807.083167	1709.612305	-129.750671
-7234.911223	3807.083167	1708.593750	-0.418256
-7234.911223	3807.083167	1707.575195	-63.521091
-7234.911223	3807.083167	1706.555664	-72.708138
-7234.911223	3807.083167	1705.536133	-9.243763
-7234.911223	3807.083167	1704.516602	42.433975
-7234.911223	3807.083167	1703.497070	-30.171579
-7234.911223	3807.083167	1702.477539	-37.173283
-7234.911223	3807.083167	1701.457031	138.531708
-7234.911223	3807.083167	1700.437500	171.245804
-7234.911223	3807.083167	1699.416992	-72.461502
-7234.911223	3807.083167	1698.395508	-100.691429
-7234.911223	3807.083167	1697.375000	70.057877
-7234.911223	3807.083167	1696.354492	-82.313911
-7234.911223	3807.083167	1695.333008	-68.511726
-7234.911223	3807.083167	1694.311523	71.598946
-7234.911223	3807.083167	1693.290039	181.209015
-7234.911223	3807.083167	1692.267578	-34.374825
-7234.911223	3807.083167	1691.246094	47.082115
-7234.911223	3807.083167	1690.223633	116.776733
-7234.911223	3807.083167	1689.201172	4.080058
-7234.911223	3807.083167	1688.178711	-26.807224
-7234.911223	3807.083167	1687.155273	215.666595
-7234.911223	3807.083167	1686.132813	126.280464
-7234.911223	3807.083167	1685.109375	71.926315
-7234.911223	3807.083167	1684.085938	-92.198471
-7234.911223	3807.083167	1683.062500	124.292358
-7234.911223	3807.083167	1682.039063	32.526287
-7234.911223	3807.083167	1681.014648	169.487518
-7234.911223	3807.083167	1679.990234	164.021957
-7234.911223	3807.083167	1678.965820	268.183868
-7234.911223	3807.083167	1677.941406	66.705246
-7234.911223	3807.083167	1676.916992	-8.787407
-7234.911223	3807.083167	1675.891602	244.487885
-7234.911223	3807.083167	1674.866211	22.058805
-7234.911223	3807.083167	1673.840820	-23.167826
-7234.911223	3807.083167	1672.815430	-91.706100
-7234.911223	3807.083167	1671.790039	82.069557
-7234.911223	3807.083167	1670.763672	202.167572
-7234.911223	3807.083167	1669.737305	45.041550
-7234.911223	3807.083167	1668.710938	-14.247383
-7234.911223	3807.083167	1667.684570	-45.598061
-7234.911223	3807.083167	1666.658203	-274.811676
-7234.911223	3807.083167	1665.630859	12.678773
-7234.911223	3807.083167	1664.603516	4.535943
-7234.911223	3807.083167	1663.576172	101.060242
-7234.911223	3807.083167	1662.548828	337.080383
-7234.911223	3807.083167	1661.520508	219.516815
-7234.911223	3807.083167	1660.493164	-53.784992
-7234.911223	3807.083167	1659.464844	-196.834381
-7234.911223	3807.083167	1658.436523	348.082214
-7234.911223	3807.083167	1657.408203	51.616783
-7234.911223	3807.083167	1656.378906	-14.763427
-7234.911223	3807.083167	1655.350586	188.311630
-7234.911223	3807.083167	1654.321289	270.525848
-7234.911223	3807.083167	1653.291992	164.625122
-7234.911223	3807.083167	1652.261719	151.599106
-7234.911223	3807.083167	1651.232422	201.238861
-7234.911223	3807.083167	1650.202148	250.837570
-7234.911223	3807.083167	1649.171875	298.085510
-7234.911223	3807.083167	1648.141602	389.374878
-7234.911223	3807.083167	1647.111328	209.279602
-7234.911223	3807.083167	1646.080078	147.488495
-7234.911223	3807.083167	1645.049805	491.412842
-7234.911223	3807.083167	1644.018555	251.102554
-7234.911223	3807.083167	1642.987305	282.005829
-7234.911223	3807.083167	1641.955078	231.790955
-7234.911223	3807.083167	1640.923828	369.227661
-7234.911223	3807.083167	1639.891602	481.121704
-7234.911223	3807.083167	1638.859375	451.717194
-7234.911223	3807.083167	1637.827148	380.646515
-7234.911223	3807.083167	1636.794922	256.363525
-7234.911223	3807.083167	1635.761719	400.562866
-7234.911223	3807.083167	1634.729492	491.494751
-7234.911223	3807.083167	1633.696289	110.466896
-7234.911223	3807.083167	1632.662109	323.979950
-7234.911223	3807.083167	1631.628906	535.105408
-7234.911223	3807.083167	1630.594727	366.978119
-7234.911223	3807.083167	1629.561523	279.827789
-7234.911223	3807.083167	1628.527344	329.054901
-7234.911223	3807.083167	1627.493164	417.545135
-7234.911223	3807.083167	1626.458008	475.962982
-7234.911223	3807.083167	1625.423828	571.323181
-7234.911223	3807.083167	1624.388672	742.847595
-7234.911223	3807.083167	1623.353516	683.427795
-7234.911223	3807.083167	1622.318359	847.947083
-7234.911223	3807.083167	1621.282227	735.448059
-7234.911223	3807.083167	1620.247070	791.452148
-7234.911223	3807.083167	1619.210938	1020.459656
-7234.911223	3807.083167	1618.174805	1014.114014
-7234.911223	3807.083167	1617.137695	1157.669556
-7234.911223	3807.083167	1616.101563	918.442688
-7234.911223	3807.083167	1615.064453	891.389771
-7234.911223	3807.083167	1614.027344	790.605408
-7234.911223	3807.083167	1612.990234	570.044312
-7234.911223	3807.083167	1611.953125	865.648438
-7234.911223	3807.083167	1610.916016	670.519104
-7234.911223	3807.083167	1609.877930	901.521057
-7234.911223	3807.083167	1608.839844	653.518372
-7234.911223	3807.083167	1607.801758	990.355347
-7234.911223	3807.083167	1606.763672	855.239685
-7234.911223	3807.083167	1605.724609	922.687622
-7234.911223	3807.083167	1604.685547	700.232056
-7234.911223	3807.083167	1603.646484	834.423401
-7234.911223	3807.083167	1602.607422	848.987793
-7234.911223	3807.083167	1601.568359	884.256958
-7234.911223	3807.083167	1600.528320	779.287292
-7234.911223	3807.083167	1599.489258	862.861389
-7234.911223	3807.083167	1598.449219	1139.449829
-7234.911223	3807.083167	1597.408203	1133.337524
-7234.911223	3807.083167	1596.368164	1023.883118
-7234.911223	3807.083167	1595.327148	1017.836609
-7234.911223	3807.083167	1594.287109	880.935425
-7234.911223	3807.083167	1593.246094	932.358398
-7234.911223	3807.083167	1592.204102	777.193176
-7234.911223	3807.083167	1591.163086	743.750244
-7234.911223	3807.083167	1590.121094	1006.321838
-7234.911223	3807.083167	1589.079102	750.368225
-7234.911223	3807.083167	1588.037109	838.574585
-7234.911223	3807.083167	1586.995117	929.065552
-7234.911223	3807.083167	1585.953125	870.523193
-7234.911223	3807.083167	1584.910156	910.589355
-7234.911223	3807.083167	1583.867188	801.702576
-7234.911223	3807.083167	1582.824219	773.082214
-7234.911223	3807.083167	1581.781250	742.210205
-7234.911223	3807.083167	1580.737305	741.148376
-7234.911223	3807.083167	1579.693359	799.655457
-7234.911223	3807.083167	1578.649414	849.013306
-7234.911223	3807.083167	1577.605469	843.444092
-7234.911223	3807.083167	1576.561523	698.301880
-7234.911223	3807.083167	1575.516602	836.975769
-7234.911223	3807.083167	1574.472656	689.669800
-7234.911223	3807.083167	1573.427734	848.942749
-7234.911223	3807.083167	1572.381836	781.783508
-7234.911223	3807.083167	1571.336914	664.391113
-7234.911223	3807.083167	1570.291016	926.539429
-7234.911223	3807.083167	1569.246094	912.082458
-7234.911223	3807.083167	1568.200195	954.786438
-7234.911223	3807.083167	1567.153320	849.004456
-7234.911223	3807.083167	1566.107422	804.980103
-7234.911223	3807.083167	1565.060547	802.110596
-7234.911223	3807.083167	1564.013672	892.893372
-7234.911223	3807.083167	1562.966797	890.084839
-7234.911223	3807.083167	1561.919922	761.787048
-7234.911223	3807.083167	1560.872070	1197.202026
-7234.911223	3807.083167	1559.825195	1016.501343
-7234.911223	3807.083167	1558.777344	972.765503
-7234.911223	3807.083167	1557.729492	995.225037
-7234.911223	3807.083167	1556.680664	732.696350
-7234.911223	3807.083167	1555.632813	1056.193604
-7234.911223	3807.083167	1554.583984	825.750610
-7234.911223	3807.083167	1553.535156	757.234375
-7234.911223	3807.083167	1552.486328	1016.866150
-7234.911223	3807.083167	1551.436523	1048.648071
-7234.911223	3807.083167	1550.387695	1059.970825
-7234.911223	3807.083167	1549.337891	827.691711
-7234.911223	3807.083167	1548.288086	941.582031
-7234.911223	3807.083167	1547.238281	925.737854
-7234.911223	3807.083167	1546.187500	1121.572754
-7234.911223	3807.083167	1545.136719	996.578491
-7234.911223	3807.083167	1544.086914	983.148865
-7234.911223	3807.083167	1543.035156	780.994507
-7234.911223	3807.083167	1541.984375	917.776794
-7234.911223	3807.083167	1540.933594	852.221802
-7234.911223	3807.083167	1539.881836	898.110352
-7234.911223	3807.083167	1538.830078	744.051208
-7234.911223	3807.083167	1537.778320	640.088623
-7234.911223	3807.083167	1536.725586	677.051575
-7234.911223	3807.083167	1535.673828	729.953308
-7234.911223	3807.083167	1534.621094	510.397614
-7234.911223	3807.083167	1533.568359	411.303406
-7234.911223	3807.083167	1532.515625	466.647614
-7234.911223	3807.083167	1531.461914	669.525024
-7234.911223	3807.083167	1530.409180	795.238403
-7234.911223	3807.083167	1529.355469	478.600067
-7234.911223	3807.083167	1528.301758	529.559875
-7234.911223	3807.083167	1527.247070	356.059448
-7234.911223	3807.083167	1526.193359	556.761475
-7234.911223	3807.083167	1525.138672	594.233643
-7234.911223	3807.083167	1524.083984	339.404907
-7234.911223	3807.083167	1523.029297	327.170258
-7234.911223	3807.083167	1521.974609	271.955719
-7234.911223	3807.083167	1520.918945	413.858551
-7234.911223	3807.083167	1519.863281	290.825195
-7234.911223	3807.083167	1518.807617	129.408707
-7234.911223	3807.083167	1517.751953	85.818336
-7234.911223	3807.083167	1516.696289	146.404984
-7234.911223	3807.083167	1515.639648	197.970200
-7234.911223	3807.083167	1514.583008	258.623260
-7234.911223	3807.083167	1513.526367	-67.447113
-7234.911223	3807.083167	1512.469727	151.643158
-7234.911223	3807.083167	1511.412109	4.444855
-7234.911223	3807.083167	1510.355469	103.751747
-7234.911223	3807.083167	1509.297852	51.658390
-7234.911223	3807.083167	1508.240234	60.653542
-7234.911223	3807.083167	1507.181641	83.255997
-7234.911223	3807.083167	1506.124023	264.016815
-7234.911223	3807.083167	1505.065430	27.003687
-7234.911223	3807.083167	1504.006836	-24.720688
-7234.911223	3807.083167	1502.948242	-128.281082
-7234.911223	3807.083167	1501.888672	88.726318
-7234.911223	3807.083167	1500.830078	-122.995689
-7234.911223	3807.083167	1499.770508	218.125046
-7234.911223	3807.083167	1498.710938	119.355980
-7234.911223	3807.083167	1497.650391	198.833603
-7234.911223	3807.083167	1496.590820	212.963303
-7234.911223	3807.083167	1495.530273	130.219055
-7234.911223	3807.083167	1494.469727	124.198166
-7234.911223	3807.083167	1493.409180	100.216209
-7234.911223	3807.083167	1492.348633	94.330963
-7234.911223	3807.083167	1491.287109	241.668488
-7234.911223	3807.083167	1490.225586	125.540634
-7234.911223	3807.083167	1489.164063	74.815727
-7234.911223	3807.083167	1488.102539	321.306396
-7234.911223	3807.083167	1487.041016	245.936600
-7234.911223	3807.083167	1485.978516	91.905899
-7234.911223	3807.083167	1484.916016	331.697723
-7234.911223	3807.083167	1483.853516	272.303375
-7234.911223	3807.083167	1482.791016	129.806946
-7234.911223	3807.083167	1481.727539	169.534225
-7234.911223	3807.083167	1480.664063	56.480061
-7234.911223	3807.083167	1479.600586	166.004898
-7234.911223	3807.083167	1478.537109	156.480896
-7234.911223	3807.083167	1477.473633	212.172760
-7234.911223	3807.083167	1476.409180	157.862640
-7234.911223	3807.083167	1475.344727	260.829193
-7234.911223	3807.083167	1474.280273	2.460209
-7234.911223	3807.083167	1473.215820	123.425644
-7234.911223	3807.083167	1472.151367	67.245071
-7234.911223	3807.083167	1471.085938	226.566162
-7234.911223	3807.083167	1470.020508	334.083252
-7234.911223	3807.083167	1468.955078	253.319809
-7234.911223	3807.083167	1467.888672	276.254730
-7234.911223	3807.083167	1466.823242	161.936249
-7234.911223	3807.083167	1465.756836	305.641479
-7234.911223	3807.083167	1464.690430	368.794891
-7234.911223	3807.083167	1463.624023	313.122131
-7234.911223	3807.083167	1462.556641	528.287842
-7234.911223	3807.083167	1461.490234	343.170654
-7234.911223	3807.083167	1460.422852	453.600098
-7234.911223	3807.083167	1459.355469	471.772766
-7234.911223	3807.083167	1458.287109	459.080139
-7234.911223	3807.083167	1457.219727	412.798767
-7234.911223	3807.083167	1456.151367	362.646332
-7234.911223	3807.083167	1455.083008	412.924591
-7234.911223	3807.083167	1454.014648	303.727264
-7234.911223	3807.083167	1452.945313	459.578003
-7234.911223	3807.083167	1451.876953	264.089569
-7234.911223	3807.083167	1450.807617	448.039825
-7234.911223	3807.083167	1449.738281	493.705780
-7234.911223	3807.083167	1448.668945	506.461426
-7234.911223	3807.083167	1447.598633	301.451721
-7234.911223	3807.083167	1446.528320	603.386169
-7234.911223	3807.083167	1445.458008	559.884766
-7234.911223	3807.083167	1444.387695	319.173004
-7234.911223	3807.083167	1443.317383	525.721497
-7234.911223	3807.083167	1442.246094	379.662811
-7234.911223	3807.083167	1441.174805	331.718811
-7234.911223	3807.083167	1440.103516	412.746765
-7234.911223	3807.083167	1439.032227	379.447754
-7234.911223	3807.083167	1437.960938	393.789398
-7234.911223	3807.083167	1436.888672	307.856750
-7234.911223	3807.083167	1435.816406	150.571457
-7234.911223	3807.083167	1434.744141	150.564255
-7234.911223	3807.083167	1433.670898	342.379333
-7234.911223	3807.083167	1432.598633	15.369317
-7234.911223	3807.083167	1431.525391	85.977303
-7234.911223	3807.083167	1430.452148	50.995705
-7234.911223	3807.083167	1429.378906	-46.644005
-7234.911223	3807.083167	1428.304688	-42.141495
-7234.911223	3807.083167	1427.231445	-136.963120
-7234.911223	3807.083167	1426.157227	-49.595863
-7234.911223	3807.083167	1425.083008	-128.680267
-7234.911223	3807.083167	1424.007813	-42.585712
-7234.911223	3807.083167	1422.933594	-142.433334
-7234.911223	3807.083167	1421.858398	-163.159866
-7234.911223	3807.083167	1420.783203	-22.005718
-7234.911223	3807.083167	1419.708008	-93.939835
-7234.911223	3807.083167	1418.631836	-267.814728
-7234.911223	3807.083167	1417.555664	-74.719582
-7234.911223	3807.083167	1416.479492	110.831680
-7234.911223	3807.083167	1415.403320	14.312465
-7234.911223	3807.083167	1414.327148	-82.082138
-7234.911223	3807.083167	1413.250000	-102.542229
-7234.911223	3807.083167	1412.173828	-157.869888
-7234.911223	3807.083167	1411.096680	-358.439178
-7234.911223	3807.083167	1410.018555	-289.580292
-7234.911223	3807.083167	1408.941406	-232.449112
-7234.911223	3807.083167	1407.863281	-67.598129
-7234.911223	3807.083167	1406.785156	-78.264656
-7234.911223	3807.083167	1405.707031	-80.141335
-7234.911223	3807.083167	1404.628906	127.578201
-7234.911223	3807.083167	1403.549805	85.551018
-7234.911223	3807.083167	1402.470703	-2.908710
-7234.911223	3807.083167	1401.391602	-12.594223
-7234.911223	3807.083167	1400.312500	135.954163
-7234.911223	3807.083167	1399.233398	-26.184763
-7234.911223	3807.083167	1398.153320	-74.489403
-7234.911223	3807.083167	1397.073242	203.137329
-7234.911223	3807.083167	1395.993164	216.324020
-7234.911223	3807.083167	1394.913086	-47.718662
-7234.911223	3807.083167	1393.832031	49.866970
-7234.911223	3807.083167	1392.750977	125.782272
-7234.911223	3807.083167	1391.669922	171.167557
-7234.911223	3807.083167	1390.588867	29.900431
-7234.911223	3807.083167	1389.506836	85.956978
-7234.911223	3807.083167	1388.425781	176.769852
-7234.911223	3807.083167	1387.343750	267.022064
-7234.911223	3807.083167	1386.261719	153.731033
-7234.911223	3807.083167	1385.178711	205.357376
-7234.911223	3807.083167	1384.096680	178.463226
-7234.911223	3807.083167	1383.013672	307.485901
-7234.911223	3807.083167	1381.930664	144.810715
-7234.911223	3807.083167	1380.846680	490.838013
-7234.911223	3807.083167	1379.763672	561.742737
-7234.911223	3807.083167	1378.679688	272.913727
-7234.911223	3807.083167	1377.595703	297.131683
-7234.911223	3807.083167	1376.511719	372.855194
-7234.911223	3807.083167	1375.427734	418.988220
-7234.911223	3807.083167	1374.342773	764.977173
-7234.911223	3807.083167	1373.257813	457.568390
-7234.911223	3807.083167	1372.172852	567.305359
-7234.911223	3807.083167	1371.087891	581.264893
-7234.911223	3807.083167	1370.001953	499.253052
-7234.911223	3807.083167	1368.916992	602.224976
-7234.911223	3807.083167	1367.831055	567.930847
-7234.911223	3807.083167	1366.744141	497.204468
-7234.911223	3807.083167	1365.658203	588.442139
-7234.911223	3807.083167	1364.571289	460.307312
-7234.911223	3807.083167	1363.484375	373.261688
-7234.911223	3807.083167	1362.397461	405.967957
-7234.911223	3807.083167	1361.310547	302.962769
-7234.911223	3807.083167	1360.222656	331.616058
-7234.911223	3807.083167	1359.135742	451.645844
-7234.911223	3807.083167	1358.047852	451.811920
-7234.911223	3807.083167	1356.958984	211.119812
-7234.911223	3807.083167	1355.871094	63.868370
-7234.911223	3807.083167	1354.782227	283.997284
-7234.911223	3807.083167	1353.693359	322.850586
-7234.911223	3807.083167	1352.604492	455.295959
-7234.911223	3807.083167	1351.515625	257.089874
-7234.911223	3807.083167	1350.425781	408.743195
-7234.911223	3807.083167	1349.335938	279.195465
-7234.911223	3807.083167	1348.246094	240.945251
-7234.911223	3807.083167	1347.156250	163.494110
-7234.911223	3807.083167	1346.066406	407.447052
-7234.911223	3807.083167	1344.975586	512.826904
-7234.911223	3807.083167	1343.884766	425.846344
-7234.911223	3807.083167	1342.793945	760.194458
-7234.911223	3807.083167	1341.702148	394.997711
-7234.911223	3807.083167	1340.611328	472.632751
-7234.911223	3807.083167	1339.519531	548.258179
-7234.911223	3807.083167	1338.427734	566.101257
-7234.911223	3807.083167	1337.334961	356.827545
-7234.911223	3807.083167	1336.243164	198.318390
-7234.911223	3807.083167	1335.150391	413.388916
-7234.911223	3807.083167	1334.057617	250.855042
-7234.911223	3807.083167	1332.964844	160.906738
-7234.911223	3807.083167	1331.871094	231.748871
-7234.911223	3807.083167	1330.778320	300.396179
-7234.911223	3807.083167	1329.684570	209.272552
-7234.911223	3807.083167	1328.590820	227.686874
-7234.911223	3807.083167	1327.496094	76.807991
-7234.911223	3807.083167	1326.402344	102.094711
-7234.911223	3807.083167	1325.307617	187.602051
-7234.911223	3807.083167	1324.212891	87.553787
-7234.911223	3807.083167	1323.117188	196.547623
-7234.911223	3807.083167	1322.022461	144.567474
-7234.911223	3807.083167	1320.926758	131.996735
-7234.911223	3807.083167	1319.831055	164.760223
-7234.911223	3807.083167	1318.735352	19.215893
-7234.911223	3807.083167	1317.638672	221.632477
-7234.911223	3807.083167	1316.542969	235.153748
-7234.911223	3807.083167	1315.446289	285.685852
-7234.911223	3807.083167	1314.349609	37.788239
-7234.911223	3807.083167	1313.251953	155.598892
-7234.911223	3807.083167	1312.155273	200.707642
-7234.911223	3807.083167	1311.057617	153.751343
-7234.911223	3807.083167	1309.959961	155.808838
-7234.911223	3807.083167	1308.862305	277.517365
-7234.911223	3807.083167	1307.763672	265.705444
-7234.911223	3807.083167	1306.665039	297.591553
-7234.911223	3807.083167	1305.566406	397.160553
-7234.911223	3807.083167	1304.467773	492.663940
-7234.911223	3807.083167	1303.369141	436.796570
-7234.911223	3807.083167	1302.269531	225.443726
-7234.911223	3807.083167	1301.169922	233.814957
-7234.911223	3807.083167	1300.070313	436.578735
-7234.911223	3807.083167	1298.970703	367.671112
-7234.911223	3807.083167	1297.870117	185.194305
-7234.911223	3807.083167	1296.769531	154.325500
-7234.911223	3807.083167	1295.668945	262.724396
-7234.911223	3807.083167	1294.568359	212.305527
-7234.911223	3807.083167	1293.466797	281.015015
-7234.911223	3807.083167	1292.366211	348.722046
-7234.911223	3807.083167	1291.264648	406.566284
-7234.911223	3807.083167	1290.162109	306.117645
-7234.911223	3807.083167	1289.060547	342.524536
-7234.911223	3807.083167	1287.958008	321.945313
-7234.911223	3807.083167	1286.855469	198.693634
-7234.911223	3807.083167	1285.752930	168.527863
-7234.911223	3807.083167	1284.650391	333.648712
-7234.911223	3807.083167	1283.546875	168.102051
-7234.911223	3807.083167	1282.444336	427.286987
-7234.911223	3807.083167	1281.339844	95.416252
-7234.911223	3807.083167	1280.236328	146.876831
-7234.911223	3807.083167	1279.132813	36.966511
-7234.911223	3807.083167	1278.028320	59.041790
-7234.911223	3807.083167	1276.923828	22.711138
-7234.911223	3807.083167	1275.819336	15.271956
-7234.911223	3807.083167	1274.713867	6.528035
-7234.911223	3807.083167	1273.608398	18.578041
-7234.911223	3807.083167	1272.503906	48.036209
-7234.911223	3807.083167	1271.397461	70.495552
-7234.911223	3807.083167	1270.291992	211.981308
-7234.911223	3807.083167	1269.185547	227.509827
-7234.911223	3807.083167	1268.080078	236.332397
-7234.911223	3807.083167	1266.972656	131.286346
-7234.911223	3807.083167	1265.866211	45.822540
-7234.911223	3807.083167	1264.759766	47.358158
-7234.911223	3807.083167	1263.652344	145.376801
-7234.911223	3807.083167	1262.544922	167.733856
-7234.911223	3807.083167	1261.436523	24.277205
-7234.911223	3807.083167	1260.329102	107.347893
-7234.911223	3807.083167	1259.220703	183.410675
-7234.911223	3807.083167	1258.112305	248.105103
-7234.911223	3807.083167	1257.003906	224.665131
-7234.911223	3807.083167	1255.895508	15.073718
-7234.911223	3807.083167	1254.786133	-13.085827
-7234.911223	3807.083167	1253.676758	104.632645
-7234.911223	3807.083167	1252.567383	105.121300
-7234.911223	3807.083167	1251.458008	197.547684
-7234.911223	3807.083167	1250.347656	82.628914
-7234.911223	3807.083167	1249.237305	55.376564
-7234.911223	3807.083167	1248.126953	125.329277
-7234.911223	3807.083167	1247.016602	-42.835617
-7234.911223	3807.083167	1245.905273	68.403717
-7234.911223	3807.083167	1244.793945	158.196518
-7234.911223	3807.083167	1243.682617	74.370514
-7234.911223	3807.083167	1242.571289	-5.885241
-7234.911223	3807.083167	1241.459961	98.690575
-7234.911223	3807.083167	1240.347656	167.745789
-7234.911223	3807.083167	1239.235352	66.703094
-7234.911223	3807.083167	1238.123047	-16.554127
-7234.911223	3807.083167	1237.009766	123.162018
-7234.911223	3807.083167	1235.897461	-54.705093
-7234.911223	3807.083167	1234.784180	128.667969
-7234.911223	3807.083167	1233.670898	3.351354
-7234.911223	3807.083167	1232.556641	-49.954357
-7234.911223	3807.083167	1231.443359	-125.215942
-7234.911223	3807.083167	1230.329102	-135.895096
-7234.911223	3807.083167	1229.214844	-35.924618
-7234.911223	3807.083167	1228.099609	102.270126
-7234.911223	3807.083167	1226.985352	88.980179
-7234.911223	3807.083167	1225.870117	255.384460
-7234.911223	3807.083167	1224.754883	6.139069
-7234.911223	3807.083167	1223.639648	1.603017
-7234.911223	3807.083167	1222.523438	57.001324
-7234.911223	3807.083167	1221.408203	-98.030197
-7234.911223	3807.083167	1220.291992	-44.276508
-7234.911223	3807.083167	1219.174805	53.155594
-7234.911223	3807.083167	1218.058594	-0.442781
-7234.911223	3807.083167	1216.941406	28.102381
-7234.911223	3807.083167	1215.824219	-110.231499
-7234.911223	3807.083167	1214.707031	-99.478935
-7234.911223	3807.083167	1213.589844	-194.741821
-7234.911223	3807.083167	1212.471680	36.195072
-7234.911223	3807.083167	1211.353516	-104.736694
-7234.911223	3807.083167	1210.235352	2.600251
-7234.911223	3807.083167	1209.117188	-58.552231
-7234.911223	3807.083167	1207.998047	-126.693756
-7234.911223	3807.083167	1206.878906	74.892426
-7234.911223	3807.083167	1205.759766	116.415947
-7234.911223	3807.083167	1204.640625	4.655807
-7234.911223	3807.083167	1203.520508	17.388733
-7234.911223	3807.083167	1202.401367	214.723419
-7234.911223	3807.083167	1201.281250	218.349380
-7234.911223	3807.083167	1200.160156	159.808273
-7234.911223	3807.083167	1199.040039	205.104385
-7234.911223	3807.083167	1197.918945	230.189850
-7234.911223	3807.083167	1196.797852	177.749313
-7234.911223	3807.083167	1195.676758	158.919174
-7234.911223	3807.083167	1194.555664	213.517517
-7234.911223	3807.083167	1193.433594	142.726318
-7234.911223	3807.083167	1192.311523	98.755592
-7234.911223	3807.083167	1191.189453	140.192978
-7234.911223	3807.083167	1190.066406	28.216490
-7234.911223	3807.083167	1188.944336	94.595238
-7234.911223	3807.083167	1187.821289	109.571289
-7234.911223	3807.083167	1186.698242	165.959244
-7234.911223	3807.083167	1185.574219	-1.563889
-7234.911223	3807.083167	1184.451172	-54.641979
-7234.911223	3807.083167	1183.327148	41.866371
-7234.911223	3807.083167	1182.203125	-56.558167
-7234.911223	3807.083167	1181.078125	128.951828
-7234.911223	3807.083167	1179.954102	38.558239
-7234.911223	3807.083167	1178.829102	-144.333954
-7234.911223	3807.083167	1177.704102	259.101715
-7234.911223	3807.083167	1176.579102	-37.670162
-7234.911223	3807.083167	1175.453125	173.641617
-7234.911223	3807.083167	1174.327148	60.365475
-7234.911223	3807.083167	1173.201172	-100.948982
-7234.911223	3807.083167	1172.075195	-45.097885
-7234.911223	3807.083167	1170.949219	19.945900
-7234.911223	3807.083167	1169.822266	85.194206
-7234.911223	3807.083167	1168.695313	-151.110367
-7234.911223	3807.083167	1167.568359	-48.686775
-7234.911223	3807.083167	1166.440430	63.548065
-7234.911223	3807.083167	1165.313477	-116.576553
-7234.911223	3807.083167	1164.185547	-59.155964
-7234.911223	3807.083167	1163.057617	-66.671127
-7234.911223	3807.083167	1161.928711	-205.369064
-7234.911223	3807.083167	1160.800781	-143.562958
-7234.911223	3807.083167	1159.671875	-115.282791
-7234.911223	3807.083167	1158.541992	-142.077652
-7234.911223	3807.083167	1157.413086	-134.984192
-7234.911223	3807.083167	1156.283203	21.941086
-7234.911223	3807.083167	1155.154297	-143.650909
-7234.911223	3807.083167	1154.023438	-208.946503
-7234.911223	3807.083167	1152.893555	-155.189392
-7234.911223	3807.083167	1151.763672	-65.693085
-7234.911223	3807.083167	1150.632813	-78.481125
-7234.911223	3807.083167	1149.501953	-16.202190
-7234.911223	3807.083167	1148.370117	1.535192
-7234.911223	3807.083167	1147.239258	-36.985020
-7234.911223	3807.083167	1146.107422	-50.914295
-7234.911223	3807.083167	1144.975586	42.100704
-7234.911223	3807.083167	1143.843750	-29.555386
-7234.911223	3807.083167	1142.710938	-189.645462
-7234.911223	3807.083167	1141.578125	-70.068062
-7234.911223	3807.083167	1140.445313	-144.172928
-7234.911223	3807.083167	1139.312500	-104.489487
-7234.911223	3807.083167	1138.178711	-132.223068
-7234.911223	3807.083167	1137.045898	6.876455
-7234.911223	3807.083167	1135.912109	-140.852448
-7234.911223	3807.083167	1134.777344	-107.551552
-7234.911223	3807.083167	1133.643555	-149.785049
-7234.911223	3807.083167	1132.508789	-30.721426
-7234.911223	3807.083167	1131.374023	126.134529
-7234.911223	3807.083167	1130.239258	58.001461
-7234.911223	3807.083167	1129.104492	-20.776978
-7234.911223	3807.083167	1127.968750	113.931633
-7234.911223	3807.083167	1126.833008	61.316914
-7234.911223	3807.083167	1125.697266	186.486206
-7234.911223	3807.083167	1124.560547	50.446857
-7234.911223	3807.083167	1123.424805	90.139938
-7234.911223	3807.083167	1122.288086	95.684746
-7234.911223	3807.083167	1121.151367	121.974129
-7234.911223	3807.083167	1120.013672	53.656990
-7234.911223	3807.083167	1118.876953	-119.494385
-7234.911223	3807.083167	1117.739258	74.707504
-7234.911223	3807.083167	1116.601563	2.568696
-7234.911223	3807.083167	1115.462891	30.507557
-7234.911223	3807.083167	1114.324219	4.148535
-7234.911223	3807.083167	1113.186523	113.105415
-7234.911223	3807.083167	1112.046875	-50.265144
-7234.911223	3807.083167	1110.908203	-22.229082
-7234.911223	3807.083167	1109.769531	13.487405
-7234.911223	3807.083167	1108.629883	138.591629
-7234.911223	3807.083167	1107.490234	255.886902
-7234.911223	3807.083167	1106.349609	151.794373
-7234.911223	3807.083167	1105.209961	107.642479
-7234.911223	3807.083167	1104.069336	-40.103382
-7234.911223	3807.083167	1102.928711	218.875793
-7234.911223	3807.083167	1101.787109	204.139771
-7234.911223	3807.083167	1100.646484	24.334547
-7234.911223	3807.083167	1099.504883	-76.064880
-7234.911223	3807.083167	1098.363281	1.596534
-7234.911223	3807.083167	1097.221680	74.189865
-7234.911223	3807.083167	1096.079102	61.734726
-7234.911223	3807.083167	1094.936523	260.556152
-7234.911223	3807.083167	1093.793945	-56.893692
-7234.911223	3807.083167	1092.651367	101.916412
-7234.911223	3807.083167	1091.507813	63.363434
-7234.911223	3807.083167	1090.364258	25.768602
-7234.911223	3807.083167	1089.220703	60.997150
-7234.911223	3807.083167	1088.077148	-62.280998
-7234.911223	3807.083167	1086.933594	-79.737709
-7234.911223	3807.083167	1085.789063	-9.778339
-7234.911223	3807.083167	1084.644531	-13.043460
-7234.911223	3807.083167	1083.499023	284.694366
-7234.911223	3807.083167	1082.354492	-31.214066
-7234.911223	3807.083167	1081.208984	44.279850
-7234.911223	3807.083167	1080.063477	-4.345237
-7234.911223	3807.083167	1078.917969	74.903854
-7234.911223	3807.083167	1077.771484	29.856022
-7234.911223	3807.083167	1076.625977	26.591801
-7234.911223	3807.083167	1075.479492	45.132229
-7234.911223	3807.083167	1074.332031	125.905983
-7234.911223	3807.083167	1073.185547	0.028885
-7234.911223	3807.083167	1072.038086	193.123413
-7234.911223	3807.083167	1070.890625	2.110801
-7234.911223	3807.083167	1069.743164	233.672714
-7234.911223	3807.083167	1068.594727	20.109583
-7234.911223	3807.083167	1067.447266	24.967131
-7234.911223	3807.083167	1066.298828	44.642063
-7234.911223	3807.083167	1065.149414	-128.173264
-7234.911223	3807.083167	1064.000977	136.732056
-7234.911223	3807.083167	1062.851563	115.781937
-7234.911223	3807.083167	1061.702148	138.504227
-7234.911223	3807.083167	1060.552734	24.580626
-7234.911223	3807.083167	1059.402344	41.173706
-7234.911223	3807.083167	1058.252930	167.896927
-7234.911223	3807.083167	1057.102539	124.384941
-7234.911223	3807.083167	1055.951172	164.877991
-7234.911223	3807.083167	1054.800781	83.089264
-7234.911223	3807.083167	1053.649414	60.718735
-7234.911223	3807.083167	1052.498047	98.342278
-7234.911223	3807.083167	1051.346680	128.908203
-7234.911223	3807.083167	1050.194336	30.991045
-7234.911223	3807.083167	1049.042969	-8.419432
-7234.911223	3807.083167	1047.890625	135.743759
-7234.911223	3807.083167	1046.738281	43.771416
-7234.911223	3807.083167	1045.584961	42.590572
-7234.911223	3807.083167	1044.431641	35.573139
-7234.911223	3807.083167	1043.278320	-119.574753
-7234.911223	3807.083167	1042.125000	28.212395
-7234.911223	3807.083167	1040.971680	165.630951
-7234.911223	3807.083167	1039.817383	96.341225
-7234.911223	3807.083167	1038.663086	218.237717
-7234.911223	3807.083167	1037.508789	124.534355
-7234.911223	3807.083167	1036.353516	85.838676
-7234.911223	3807.083167	1035.198242	49.848942
-7234.911223	3807.083167	1034.042969	149.906036
-7234.911223	3807.083167	1032.887695	40.731747
-7234.911223	3807.083167	1031.732422	52.246052
-7234.911223	3807.083167	1030.576172	27.861097
-7234.911223	3807.083167	1029.419922	43.910969
-7234.911223	3807.083167	1028.263672	356.132080
-7234.911223	3807.083167	1027.106445	199.411133
-7234.911223	3807.083167	1025.949219	91.614487
-7234.911223	3807.083167	1024.792969	66.498253
-7234.911223	3807.083167	1023.634766	145.863800
-7234.911223	3807.083167	1022.477539	-72.495323
-7234.911223	3807.083167	1021.319336	-51.871410
-7234.911223	3807.083167	1020.161133	-15.665558
-7234.911223	3807.083167	1019.002930	251.505142
-7234.911223	3807.083167	1017.843750	-112.940552
-7234.911223	3807.083167	1016.684570	61.842426
-7234.911223	3807.083167	1015.525391	130.657867
-7234.911223	3807.083167	1014.366211	40.678707
-7234.911223	3807.083167	1013.207031	-37.340069
-7234.911223	3807.083167	1012.046875	30.237020
-7234.911223	3807.083167	1010.886719	45.174053
-7234.911223	3807.083167	1009.726563	-61.083561
-7234.911223	3807.083167	1008.565430	-18.636726
-7234.911223	3807.083167	1007.404297	-13.419546
-7234.911223	3807.083167	1006.243164	-12.021769
-7234.911223	3807.083167	1005.082031	12.057673
-7234.911223	3807.083167	1003.920898	6.163601
-7234.911223	3807.083167	1002.758789	207.131546
-7234.911223	3807.083167	1001.596680	66.618324
-7234.911223	3807.083167	1000.433594	88.215294
-7234.911223	3807.083167	999.271484	-68.287361
-7234.911223	3807.083167	998.108398	-207.711899
-7234.911223	3807.083167	996.945313	110.522369
-7234.911223	3807.083167	995.782227	6.579611
-7234.911223	3807.083167	994.618164	57.247387
-7234.911223	3807.083167	993.454102	-95.515625
-7234.911223	3807.083167	992.290039	-159.965179
-7234.911223	3807.083167	991.125977	110.505234
-7234.911223	3807.083167	989.960938	-3.745575
-7234.911223	3807.083167	988.796875	-55.471066
-7234.911223	3807.083167	987.630859	-14.359749
-7234.911223	3807.083167	986.465820	74.765343
-7234.911223	3807.083167	985.300781	-139.162796
-7234.911223	3807.083167	984.134766	-61.145798
-7234.911223	3807.083167	982.968750	-61.814705
-7234.911223	3807.083167	981.801758	169.311234
-7234.911223	3807.083167	980.635742	-69.469444
-7234.911223	3807.083167	979.468750	136.553650
-7234.911223	3807.083167	978.301758	-138.026810
-7234.911223	3807.083167	977.133789	-8.569006
-7234.911223	3807.083167	975.966797	185.703247
-7234.911223	3807.083167	974.798828	-126.056412
-7234.911223	3807.083167	973.630859	-54.485718
-7234.911223	3807.083167	972.461914	-34.682182
-7234.911223	3807.083167	971.293945	-133.100952
-7234.911223	3807.083167	970.125000	-16.189093
-7234.911223	3807.083167	968.956055	130.887390
-7234.911223	3807.083167	967.786133	21.975273
-7234.911223	3807.083167	966.617188	134.928116
-7234.911223	3807.083167	965.447266	169.178589
-7234.911223	3807.083167	964.276367	46.045116
-7234.911223	3807.083167	963.106445	-61.630386
-7234.911223	3807.083167	961.935547	38.865929
-7234.911223	3807.083167	960.764648	70.009766
-7234.911223	3807.083167	959.593750	37.389080
-7234.911223	3807.083167	958.422852	144.902390
-7234.911223	3807.083167	957.250977	-8.687689
-7234.911223	3807.083167	956.079102	-33.628040
-7234.911223	3807.083167	954.907227	51.744480
-7234.911223	3807.083167	953.734375	-22.341713
-7234.911223	3807.083167	952.562500	-227.510254
-7234.911223	3807.083167	951.389648	9.253203
-7234.911223	3807.083167	950.215820	44.351036
-7234.911223	3807.083167	949.042969	-10.148911
-7234.911223	3807.083167	947.869141	-31.767523
-7234.911223	3807.083167	946.695313	-61.557266
-7234.911223	3807.083167	945.521484	0.470200
-7234.911223	3807.083167	944.346680	37.964058
-7234.911223	3807.083167	943.172852	58.242294
-7234.911223	3807.083167	941.998047	61.625671
-7234.911223	3807.083167	940.822266	89.586853
-7234.911223	3807.083167	939.647461	25.219299
-7234.911223	3807.083167	938.471680	-24.883860
-7234.911223	3807.083167	937.295898	29.330482
-7234.911223	3807.083167	936.119141	74.054375
-7234.911223	3807.083167	934.943359	94.469261
-7234.911223	3807.083167	933.766602	78.481636
-7234.911223	3807.083167	932.589844	130.274551
-7234.911223	3807.083167	931.413086	87.570679
-7234.911223	3807.083167	930.235352	-112.900887
-7234.911223	3807.083167	929.057617	-63.471729
-7234.911223	3807.083167	927.879883	-43.214077
-7234.911223	3807.083167	926.702148	54.587914
-7234.911223	3807.083167	925.523438	21.498232
-7234.911223	3807.083167	924.344727	27.173622
-7234.911223	3807.083167	923.166016	49.795753
-7234.911223	3807.083167	921.987305	200.817764
-7234.911223	3807.083167	920.807617	-14.041126
-7234.911223	3807.083167	919.627930	-11.179809
-7234.911223	3807.083167	919.497070	-44.432522
-7234.911223	3807.083167	918.331055	-135.716690
-7234.911223	3807.083167	917.165039	3.026397
-7234.911223	3807.083167	915.999023	13.405162
-7234.911223	3807.083167	914.833008	214.954773
-7234.911223	3807.083167	913.666016	-48.161339
-7234.911223	3807.083167	912.499023	-62.012867
-7234.911223	3807.083167	911.332031	57.150204
-7234.911223	3807.083167	910.165039	11.815170
-7234.911223	3807.083167	908.997070	-52.855556
-7234.911223	3807.083167	907.830078	-177.947525
-7234.911223	3807.083167	906.661133	-109.664024
-7234.911223	3807.083167	905.493164	-48.675797
-7234.911223	3807.083167	904.325195	104.070168
-7234.911223	3807.083167	903.156250	22.464705
-7234.911223	3807.083167	901.987305	-83.270760
-7234.911223	3807.083167	900.818359	25.888180
-7234.911223	3807.083167	899.648438	11.888960
-7234.911223	3807.083167	898.478516	-33.492275
-7234.911223	3807.083167	897.308594	143.101883
-7234.911223	3807.083167	896.138672	-13.282696
-7234.911223	3807.083167	894.968750	-44.207539
-7234.911223	3807.083167	893.797852	197.340149
-7234.911223	3807.083167	892.626953	-14.452318
-7234.911223	3807.083167	891.456055	258.292969
-7234.911223	3807.083167	890.284180	109.199142
-7234.911223	3807.083167	889.113281	104.706398
-7234.911223	3807.083167	887.941406	13.484787
-7234.911223	3807.083167	886.768555	21.027395
-7234.911223	3807.083167	885.596680	122.454216
-7234.911223	3807.083167	884.423828	45.683258
-7234.911223	3807.083167	883.250977	-14.225021
-7234.911223	3807.083167	882.078125	144.853363
-7234.911223	3807.083167	880.905273	-1.693913
-7234.911223	3807.083167	879.731445	-73.628677
-7234.911223	3807.083167	878.557617	32.410385
-7234.911223	3807.083167	877.383789	83.088257
-7234.911223	3807.083167	876.209961	-36.946663
-7234.911223	3807.083167	875.035156	52.148247
-7234.911223	3807.083167	873.860352	95.535118
-7234.911223	3807.083167	872.685547	90.839874
-7234.911223	3807.083167	871.510742	177.402298
-7234.911223	3807.083167	870.334961	184.667511
-7234.911223	3807.083167	869.159180	191.912903
-7234.911223	3807.083167	867.983398	-12.100825
-7234.911223	3807.083167	866.807617	35.946564
-7234.911223	3807.083167	865.630859	172.740356
-7234.911223	3807.083167	864.454102	237.491592
-7234.911223	3807.083167	863.277344	141.500031
-7234.911223	3807.083167	862.100586	21.551722
-7234.911223	3807.083167	860.922852	-43.220856
-7234.911223	3807.083167	859.745117	43.026222
-7234.911223	3807.083167	858.567383	-21.758881
-7234.911223	3807.083167	857.389648	-117.683655
-7234.911223	3807.083167	856.210938	-65.062958
-7234.911223	3807.083167	855.032227	-38.826256
-7234.911223	3807.083167	853.853516	186.129883
-7234.911223	3807.083167	852.674805	140.446014
-7234.911223	3807.083167	851.495117	245.560150
-7234.911223	3807.083167	850.315430	125.662987
-7234.911223	3807.083167	849.135742	194.812057
-7234.911223	3807.083167	847.956055	-128.389221
-7234.911223	3807.083167	846.775391	57.935608
-7234.911223	3807.083167	845.595703	103.089058
-7234.911223	3807.083167	844.415039	-246.245270
-7234.911223	3807.083167	843.233398	-93.526527
-7234.911223	3807.083167	842.052734	-129.672760
-7234.911223	3807.083167	840.871094	65.926270
-7234.911223	3807.083167	839.689453	-61.042526
-7234.911223	3807.083167	838.506836	-59.017292
-7234.911223	3807.083167	837.325195	-33.135708
-7234.911223	3807.083167	836.142578	40.460384
-7234.911223	3807.083167	834.959961	-131.822311
-7234.911223	3807.083167	833.777344	197.047363
-7234.911223	3807.083167	832.593750	58.166317
-7234.911223	3807.083167	831.410156	-145.079193
-7234.911223	3807.083167	830.226563	119.144699
-7234.911223	3807.083167	829.042969	37.525406
-7234.911223	3807.083167	827.858398	-137.043350
-7234.911223	3807.083167	826.673828	81.673363
-7234.911223	3807.083167	825.489258	66.771156
-7234.911223	3807.083167	824.304688	-119.670013
-7234.911223	3807.083167	823.120117	-22.622900
-7234.911223	3807.083167	821.934570	74.363754
-7234.911223	3807.083167	820.749023	147.481995
-7234.911223	3807.083167	819.562500	134.858826
-7234.911223	3807.083167	818.376953	293.565094
-7234.911223	3807.083167	817.190430	128.599030
-7234.911223	3807.083167	816.003906	120.681068
-7234.911223	3807.083167	814.817383	12.855056
-7234.911223	3807.083167	813.629883	28.701021
-7234.911223	3807.083167	812.442383	-43.443359
-7234.911223	3807.083167	811.254883	10.393480
-7234.911223	3807.083167	810.067383	104.584473
-7234.911223	3807.083167	808.878906	60.913692
-7234.911223	3807.083167	807.690430	-20.767452
-7234.911223	3807.083167	806.501953	-176.058685
-7234.911223	3807.083167	805.313477	74.714691
-7234.911223	3807.083167	804.124023	-21.228758
-7234.911223	3807.083167	802.934570	236.483932
-7234.911223	3807.083167	801.745117	102.534294
-7234.911223	3807.083167	800.555664	91.982758
-7234.911223	3807.083167	799.365234	86.158165
-7234.911223	3807.083167	798.175781	58.967907
-7234.911223	3807.083167	796.985352	74.443787
-7234.911223	3807.083167	795.793945	-54.709286
-7234.911223	3807.083167	794.603516	-20.303535
-7234.911223	3807.083167	793.412109	-59.390282
-7234.911223	3807.083167	792.220703	-48.736034
-7234.911223	3807.083167	791.028320	-189.693726
-7234.911223	3807.083167	789.836914	53.000759
-7234.911223	3807.083167	788.644531	-80.866173
-7234.911223	3807.083167	787.452148	19.635342
-7234.911223	3807.083167	786.258789	70.373001
-7234.911223	3807.083167	785.066406	50.081772
-7234.911223	3807.083167	783.873047	48.700256
-7234.911223	3807.083167	782.679688	186.833206
-7234.911223	3807.083167	781.485352	10.394137
-7234.911223	3807.083167	780.291992	-192.002914
-7234.911223	3807.083167	779.097656	-42.163631
-7234.911223	3807.083167	777.903320	-74.370895
-7234.911223	3807.083167	776.708008	-38.075512
-7234.911223	3807.083167	775.512695	-148.272217
-7234.911223	3807.083167	774.318359	187.899796
-7234.911223	3807.083167	773.122070	96.539322
-7234.911223	3807.083167	771.926758	85.452667
-7234.911223	3807.083167	770.730469	138.069183
-7234.911223	3807.083167	769.534180	-45.330349
-7234.911223	3807.083167	768.337891	-32.868095
-7234.911223	3807.083167	767.141602	10.225384
-7234.911223	3807.083167	765.944336	3.752996
-7234.911223	3807.083167	764.747070	171.726074
-7234.911223	3807.083167	763.549805	179.312485
-7234.911223	3807.083167	762.351563	120.879539
-7234.911223	3807.083167	761.154297	31.811512
-7234.911223	3807.083167	759.956055	201.887985
-7234.911223	3807.083167	758.757813	197.575470
-7234.911223	3807.083167	757.558594	153.207031
-7234.911223	3807.083167	756.359375	66.451363
-7234.911223	3807.083167	755.160156	80.917778
-7234.911223	3807.083167	753.960938	142.416748
-7234.911223	3807.083167	752.761719	83.869118
-7234.911223	3807.083167	751.561523	149.989655
-7234.911223	3807.083167	750.361328	72.593666
-7234.911223	3807.083167	749.160156	86.904694
-7234.911223	3807.083167	747.959961	167.004776
-7234.911223	3807.083167	746.758789	157.728714
-7234.911223	3807.083167	745.557617	204.826477
-7234.911223	3807.083167	744.356445	73.322433
-7234.911223	3807.083167	743.154297	82.777916
-7234.911223	3807.083167	741.952148	5.310163
-7234.911223	3807.083167	740.750000	153.245316
-7234.911223	3807.083167	739.547852	287.005188
-7234.911223	3807.083167	738.344727	80.376617
-7234.911223	3807.083167	737.142578	-27.644848
-7234.911223	3807.083167	735.939453	42.642399
-7234.911223	3807.083167	734.735352	-149.821320
-7234.911223	3807.083167	733.532227	-49.111584
-7234.911223	3807.083167	732.328125	-75.074783
-7234.911223	3807.083167	731.124023	-23.704756
-7234.911223	3807.083167	729.918945	-21.599586
-7234.911223	3807.083167	728.714844	-221.022171
-7234.911223	3807.083167	727.509766	-90.096397
-7234.911223	3807.083167	726.303711	22.008705
-7234.911223	3807.083167	725.098633	75.500122
-7234.911223	3807.083167	723.892578	47.001877
-7234.911223	3807.083167	722.686523	-77.475792
-7234.911223	3807.083167	721.480469	-171.510010
-7234.911223	3807.083167	720.274414	-171.951370
-7234.911223	3807.083167	719.067383	-158.387375
-7234.911223	3807.083167	717.860352	-193.969803
-7234.911223	3807.083167	716.653320	-96.293327
-7234.911223	3807.083167	715.445313	-31.415270
-7234.911223	3807.083167	714.238281	-139.540314
-7234.911223	3807.083167	713.030273	-189.234253
-7234.911223	3807.083167	711.821289	-59.053764
-7234.911223	3807.083167	710.613281	-276.970001
-7234.911223	3807.083167	709.404297	9.572225
-7234.911223	3807.083167	708.195313	284.291473
-7234.911223	3807.083167	706.986328	61.683868
-7234.911223	3807.083167	705.776367	25.835546
-7234.911223	3807.083167	704.566406	104.300110
-7234.911223	3807.083167	703.356445	61.401848
-7234.911223	3807.083167	702.146484	102.452347
-7234.911223	3807.083167	700.935547	-78.060013
-7234.911223	3807.083167	699.724609	60.856960
-7234.911223	3807.083167	698.513672	248.632065
-7234.911223	3807.083167	697.302734	37.822033
-7234.911223	3807.083167	696.090820	-128.662964
-7234.911223	3807.083167	694.878906	75.251411
-7234.911223	3807.083167	693.666992	-35.337078
-7234.911223	3807.083167	692.455078	-117.968376
-7234.911223	3807.083167	691.242188	13.566460
-7234.911223	3807.083167	690.029297	58.905346
-7234.911223	3807.083167	688.816406	-5.164486
-7234.911223	3807.083167	687.602539	214.578537
-7234.911223	3807.083167	686.389648	64.388878
-7234.911223	3807.083167	685.175781	77.010345
-7234.911223	3807.083167	683.960938	173.292618
-7234.911223	3807.083167	682.747070	-28.014608
-7234.911223	3807.083167	681.532227	258.755249
-7234.911223	3807.083167	680.317383	431.529327
-7234.911223	3807.083167	679.102539	65.282455
-7234.911223	3807.083167	677.886719	302.996796
-7234.911223	3807.083167	676.670898	194.613266
-7234.911223	3807.083167	675.455078	25.889877
-7234.911223	3807.083167	674.239258	307.480103
-7234.911223	3807.083167	673.022461	62.172756
-7234.911223	3807.083167	671.805664	206.701797
-7234.911223	3807.083167	670.588867	-13.018492
-7234.911223	3807.083167	669.372070	156.923187
-7234.911223	3807.083167	668.154297	224.749176
-7234.911223	3807.083167	666.936523	-120.089661
-7234.911223	3807.083167	665.718750	96.038750
-7234.911223	3807.083167	664.500977	161.442215
-7234.911223	3807.083167	663.282227	87.796127
-7234.911223	3807.083167	662.063477	211.023163
-7234.911223	3807.083167	660.844727	102.613770
-7234.911223	3807.083167	659.625000	230.365356
-7234.911223	3807.083167	658.405273	57.138176
-7234.911223	3807.083167	657.185547	32.064304
-7234.911223	3807.083167	655.965820	173.559021
-7234.911223	3807.083167	654.745117	129.916748
-7234.911223	3807.083167	653.525391	60.831612
-7234.911223	3807.083167	652.303711	116.606239
-7234.911223	3807.083167	651.083008	179.271530
-7234.911223	3807.083167	649.861328	156.371063
-7234.911223	3807.083167	648.640625	147.323746
-7234.911223	3807.083167	647.417969	4.262094
-7234.911223	3807.083167	646.196289	216.938904
-7234.911223	3807.083167	644.973633	-9.253705
-7234.911223	3807.083167	643.750977	41.678566
-7234.911223	3807.083167	642.528320	46.403000
-7234.911223	3807.083167	641.305664	4.949193
-7234.911223	3807.083167	640.082031	-68.812408
-7234.911223	3807.083167	638.858398	122.720001
-7234.911223	3807.083167	637.634766	155.015472
-7234.911223	3807.083167	636.410156	74.290146
-7234.911223	3807.083167	635.185547	180.311874
-7234.911223	3807.083167	633.960938	44.259705
-7234.911223	3807.083167	632.736328	-41.057457
-7234.911223	3807.083167	631.510742	-68.761414
-7234.911223	3807.083167	630.285156	-154.056885
-7234.911223	3807.083167	629.059570	-6.741382
-7234.911223	3807.083167	627.833984	-18.372187
-7234.911223	3807.083167	626.607422	9.115380
-7234.911223	3807.083167	625.380859	41.177803
-7234.911223	3807.083167	624.154297	107.723633
-7234.911223	3807.083167	622.927734	-74.224319
-7234.911223	3807.083167	621.700195	134.881989
-7234.911223	3807.083167	620.472656	228.910217
-7234.911223	3807.083167	619.245117	166.552155
-7234.911223	3807.083167	618.016602	32.948593
-7234.911223	3807.083167	616.788086	94.719193
-7234.911223	3807.083167	615.559570	39.276424
-7234.911223	3807.083167	614.331055	4.515191
-7234.911223	3807.083167	613.101563	66.210045
-7234.911223	3807.083167	611.872070	75.054932
-7234.911223	3807.083167	610.642578	58.632236
-7234.911223	3807.083167	609.413086	-196.485382
-7234.911223	3807.083167	608.182617	28.063492
-7234.911223	3807.083167	606.952148	107.976768
-7234.911223	3807.083167	605.721680	-62.162186
-7234.911223	3807.083167	604.491211	159.889206
-7234.911223	3807.083167	603.259766	70.031403
-7234.911223	3807.083167	602.028320	101.686958
-7234.911223	3807.083167	600.796875	101.235138
-7234.911223	3807.083167	599.564453	-151.258545
-7234.911223	3807.083167	598.332031	43.032745
-7234.911223	3807.083167	597.099609	42.565449
-7234.911223	3807.083167	595.867188	158.865326
-7234.911223	3807.083167	594.633789	128.594543
-7234.911223	3807.083167	593.400391	-13.820420
-7234.911223	3807.083167	592.166992	54.338573
-7234.911223	3807.083167	590.933594	56.116821
-7234.911223	3807.083167	589.699219	115.068077
-7234.911223	3807.083167	588.464844	-13.530605
-7234.911223	3807.083167	587.230469	203.154160
-7234.911223	3807.083167	585.995117	97.436852
-7234.911223	3807.083167	584.760742	51.180820
-7234.911223	3807.083167	583.525391	201.435532
-7234.911223	3807.083167	582.289063	-18.449034
-7234.911223	3807.083167	581.053711	97.490082
-7234.911223	3807.083167	579.817383	58.102135
-7234.911223	3807.083167	578.581055	94.064583
-7234.911223	3807.083167	577.343750	130.006332
-7234.911223	3807.083167	576.107422	168.214539
-7234.911223	3807.083167	574.870117	149.365616
-7234.911223	3807.083167	573.631836	287.907135
-7234.911223	3807.083167	572.394531	120.805984
-7234.911223	3807.083167	571.156250	49.532444
-7234.911223	3807.083167	569.917969	-8.033902
-7234.911223	3807.083167	568.679688	130.417801
-7234.911223	3807.083167	567.440430	132.097473
-7234.911223	3807.083167	566.202148	177.060791
-7234.911223	3807.083167	564.961914	162.783554
-7234.911223	3807.083167	563.722656	196.334473
-7234.911223	3807.083167	562.482422	307.272705
-7234.911223	3807.083167	561.243164	-82.572678
-7234.911223	3807.083167	560.001953	-99.055962
-7234.911223	3807.083167	558.761719	180.238190
-7234.911223	3807.083167	557.520508	254.695084
-7234.911223	3807.083167	556.279297	19.837729
-7234.911223	3807.083167	555.038086	39.732765
-7234.911223	3807.083167	553.795898	50.527534
-7234.911223	3807.083167	552.554688	168.139862
-7234.911223	3807.083167	551.311523	76.655907
-7234.911223	3807.083167	550.069336	112.434204
-7234.911223	3807.083167	548.826172	36.906906
-7234.911223	3807.083167	547.583984	-122.600021
-7234.911223	3807.083167	546.339844	60.770065
-7234.911223	3807.083167	545.096680	-121.366570
-7234.911223	3807.083167	543.852539	-96.918617
-7234.911223	3807.083167	542.608398	22.812551
-7234.911223	3807.083167	541.364258	56.300648
-7234.911223	3807.083167	540.119141	137.400925
-7234.911223	3807.083167	538.875000	25.747776
-7234.911223	3807.083167	537.628906	47.887287
-7234.911223	3807.083167	536.383789	74.555634
-7234.911223	3807.083167	535.137695	-43.801434
-7234.911223	3807.083167	533.892578	198.096863
-7234.911223	3807.083167	532.645508	-158.046188
-7234.911223	3807.083167	531.399414	-27.179106
-7234.911223	3807.083167	530.152344	-147.662811
-7234.911223	3807.083167	528.905273	-111.913185
-7234.911223	3807.083167	527.658203	-101.068039
-7234.911223	3807.083167	526.410156	113.398613
-7234.911223	3807.083167	525.163086	13.359143
-7234.911223	3807.083167	523.914063	6.085149
-7234.911223	3807.083167	522.666016	-132.321365
-7234.911223	3807.083167	521.416992	7.379190
-7234.911223	3807.083167	520.167969	-85.763451
-7234.911223	3807.083167	518.918945	-29.731989
-7234.911223	3807.083167	517.669922	64.682243
-7234.911223	3807.083167	516.419922	186.157425
-7234.911223	3807.083167	515.169922	147.255890
-7234.911223	3807.083167	513.919922	-130.936829
-7234.911223	3807.083167	512.668945	-153.954544
-7234.911223	3807.083167	511.417969	69.014000
-7234.911223	3807.083167	510.166992	-28.491632
-7234.911223	3807.083167	508.916016	-94.376259
-7234.911223	3807.083167	507.664063	-119.642563
-7234.911223	3807.083167	506.412109	-95.296799
-7234.911223	3807.083167	505.160156	64.291283
-7234.911223	3807.083167	503.907227	-242.722900
-7234.911223	3807.083167	502.655273	-249.922668
-7234.911223	3807.083167	501.402344	-117.452682
-7234.911223	3807.083167	500.148438	-190.007034
-7234.911223	3807.083167	498.895508	-316.578339
-7234.911223	3807.083167	497.641602	-58.126785
-7234.911223	3807.083167	496.387695	-20.377665
-7234.911223	3807.083167	495.132813	-124.427803
-7234.911223	3807.083167	493.878906	-84.449585
-7234.911223	3807.083167	492.624023	-105.235466
-7234.911223	3807.083167	491.368164	71.877563
-7234.911223	3807.083167	490.113281	-18.658945
-7234.911223	3807.083167	488.857422	-43.983322
-7234.911223	3807.083167	487.601563	-22.115042
-7234.911223	3807.083167	486.344727	107.580147
-7234.911223	3807.083167	485.088867	46.251923
-7234.911223	3807.083167	483.832031	-73.467804
-7234.911223	3807.083167	482.575195	-103.335953
-7234.911223	3807.083167	481.317383	30.673067
-7234.911223	3807.083167	480.059570	-149.637207
-7234.911223	3807.083167	478.801758	-161.588577
-7234.911223	3807.083167	477.543945	-9.781251
-7234.911223	3807.083167	476.285156	-19.571743
-7234.911223	3807.083167	475.027344	33.407253
-7234.911223	3807.083167	473.767578	-23.537727
-7234.911223	3807.083167	472.508789	103.326241
-7234.911223	3807.083167	471.249023	-135.212601
-7234.911223	3807.083167	469.989258	99.098198
-7234.911223	3807.083167	468.729492	12.920746
-7234.911223	3807.083167	467.469727	96.957130
-7234.911223	3807.083167	466.208984	-123.624474
-7234.911223	3807.083167	464.948242	85.684128
-7234.911223	3807.083167	463.686523	-9.552608
-7234.911223	3807.083167	462.425781	94.366570
-7234.911223	3807.083167	461.164063	162.389023
-7234.911223	3807.083167	459.901367	136.377472
-7234.911223	3807.083167	458.639648	121.504852
-7234.911223	3807.083167	457.376953	131.170242
-7234.911223	3807.083167	456.114258	-69.356705
-7234.911223	3807.083167	454.851563	16.203556
-7234.911223	3807.083167	453.587891	144.107910
-7234.911223	3807.083167	452.324219	50.728508
-7234.911223	3807.083167	451.060547	6.451063
-7234.911223	3807.083167	449.796875	176.477646
-7234.911223	3807.083167	448.532227	-35.404129
-7234.911223	3807.083167	447.267578	127.694351
-7234.911223	3807.083167	446.002930	-153.433289
-7234.911223	3807.083167	444.737305	161.149506
-7234.911223	3807.083167	443.471680	13.780522
-7234.911223	3807.083167	442.206055	2.410328
-7234.911223	3807.083167	440.940430	84.586105
-7234.911223	3807.083167	439.673828	231.261337
-7234.911223	3807.083167	438.407227	79.131149
-7234.911223	3807.083167	437.140625	-146.574966
-7234.911223	3807.083167	435.873047	-49.296608
-7234.911223	3807.083167	434.605469	83.454239
-7234.911223	3807.083167	433.337891	69.060120
-7234.911223	3807.083167	432.070313	301.650543
-7234.911223	3807.083167	430.801758	99.987267
-7234.911223	3807.083167	429.533203	163.074860
-7234.911223	3807.083167	428.264648	208.192947
-7234.911223	3807.083167	426.996094	106.341698
-7234.911223	3807.083167	425.726563	-11.189695
-7234.911223	3807.083167	424.457031	220.229340
-7234.911223	3807.083167	423.186523	69.054497
-7234.911223	3807.083167	421.916992	53.344433
-7234.911223	3807.083167	420.646484	219.653885
-7234.911223	3807.083167	419.375977	474.565582
-7234.911223	3807.083167	418.104492	56.245167
-7234.911223	3807.083167	416.833008	213.001953
-7234.911223	3807.083167	415.561523	198.558746
-7234.911223	3807.083167	414.290039	186.138184
-7234.911223	3807.083167	413.017578	122.471207
-7234.911223	3807.083167	411.746094	258.286743
-7234.911223	3807.083167	410.472656	56.671566
-7234.911223	3807.083167	409.200195	242.988205
-7234.911223	3807.083167	407.926758	280.440430
-7234.911223	3807.083167	406.653320	118.143410
-7234.911223	3807.083167	405.379883	68.688042
-7234.911223	3807.083167	404.105469	112.046227
-7234.911223	3807.083167	402.831055	46.580338
-7234.911223	3807.083167	401.556641	84.960899
-7234.911223	3807.083167	400.282227	426.384674
-7234.911223	3807.083167	399.006836	304.707886
-7234.911223	3807.083167	397.731445	120.821457
-7234.911223	3807.083167	396.456055	188.960724
-7234.911223	3807.083167	395.179688	163.838226
-7234.911223	3807.083167	393.903320	255.630157
-7234.911223	3807.083167	392.626953	39.688644
-7234.911223	3807.083167	391.350586	29.107780
-7234.911223	3807.083167	390.073242	157.426559
-7234.911223	3807.083167	388.795898	59.933823
-7234.911223	3807.083167	387.518555	220.613831
-7234.911223	3807.083167	386.240234	126.819649
-7234.911223	3807.083167	384.961914	-40.191818
-7234.911223	3807.083167	383.683594	167.821945
-7234.911223	3807.083167	382.405273	-141.195557
-7234.911223	3807.083167	381.125977	41.647865
-7234.911223	3807.083167	379.846680	71.742363
-7234.911223	3807.083167	378.567383	77.125618
-7234.911223	3807.083167	377.287109	35.734192
-7234.911223	3807.083167	376.006836	124.002541
-7234.911223	3807.083167	374.726563	66.266602
-7234.911223	3807.083167	373.446289	111.669762
-7234.911223	3807.083167	372.165039	147.736206
-7234.911223	3807.083167	370.883789	117.193947
-7234.911223	3807.083167	369.602539	-57.019314
-7234.911223	3807.083167	368.320313	118.446968
-7234.911223	3807.083167	367.039063	-21.523972
-7234.911223	3807.083167	365.755859	69.109085
-7234.911223	3807.083167	364.473633	-236.971542
-7234.911223	3807.083167	363.190430	74.754585
-7234.911223	3807.083167	361.907227	117.386841
-7234.911223	3807.083167	360.624023	-38.537025
-7234.911223	3807.083167	359.340820	-144.435501
-7234.911223	3807.083167	358.056641	89.801331
-7234.911223	3807.083167	356.772461	39.771774
-7234.911223	3807.083167	355.487305	-248.229172
-7234.911223	3807.083167	354.202148	-66.646698
-7234.911223	3807.083167	352.916992	79.026245
-7234.911223	3807.083167	351.631836	-4.444703
-7234.911223	3807.083167	350.346680	40.934353
-7234.911223	3807.083167	349.060547	116.265121
-7234.911223	3807.083167	347.774414	-158.111115
-7234.911223	3807.083167	346.487305	-185.235916
-7234.911223	3807.083167	345.200195	-153.907059
-7234.911223	3807.083167	343.913086	27.926649
-7234.911223	3807.083167	342.625977	206.671631
-7234.911223	3807.083167	341.338867	-5.688779
-7234.911223	3807.083167	340.050781	182.229156
-7234.911223	3807.083167	338.762695	-20.827755
-7234.911223	3807.083167	337.473633	-211.568466
-7234.911223	3807.083167	336.184570	-105.270844
-7234.911223	3807.083167	334.895508	-177.311401
-7234.911223	3807.083167	333.606445	21.197775
-7234.911223	3807.083167	332.317383	146.426514
-7234.911223	3807.083167	331.027344	-114.551033
-7234.911223	3807.083167	329.736328	12.976116
-7234.911223	3807.083167	328.446289	-127.399162
-7234.911223	3807.083167	327.155273	-15.119271
-7234.911223	3807.083167	325.864258	102.602707
-7234.911223	3807.083167	324.573242	39.942600
-7234.911223	3807.083167	323.281250	6.759974
-7234.911223	3807.083167	321.989258	-51.575794
-7234.911223	3807.083167	320.697266	76.822075
-7234.911223	3807.083167	319.405273	-36.250763
-7234.911223	3807.083167	318.112305	-150.513733
-7234.911223	3807.083167	316.819336	-226.656952
-7234.911223	3807.083167	315.526367	106.303726
-7234.911223	3807.083167	314.232422	38.486816
-7234.911223	3807.083167	312.938477	-61.139839
-7234.911223	3807.083167	311.644531	-68.256264
-7234.911223	3807.083167	310.349609	147.843887
-7234.911223	3807.083167	309.054688	166.261063
-7234.911223	3807.083167	307.759766	270.459717
-7234.911223	3807.083167	306.464844	323.065948
-7234.911223	3807.083167	305.168945	417.723877
-7234.911223	3807.083167	303.873047	382.343201
-7234.911223	3807.083167	302.577148	447.827301
-7234.911223	3807.083167	301.281250	746.898499
-7234.911223	3807.083167	299.984375	523.960388
