#X		#Y		#Wave		#Intensity
-7261.904415	3824.221500	1999.946289	58.372540
-7261.904415	3824.221500	1998.981445	15.189516
-7261.904415	3824.221500	1998.017578	-104.782761
-7261.904415	3824.221500	1997.052734	-19.210100
-7261.904415	3824.221500	1996.088867	108.260834
-7261.904415	3824.221500	1995.124023	86.877411
-7261.904415	3824.221500	1994.159180	-199.686508
-7261.904415	3824.221500	1993.193359	204.569565
-7261.904415	3824.221500	1992.228516	-129.291779
-7261.904415	3824.221500	1991.262695	69.011307
-7261.904415	3824.221500	1990.296875	-44.756966
-7261.904415	3824.221500	1989.331055	150.663055
-7261.904415	3824.221500	1988.365234	34.134491
-7261.904415	3824.221500	1987.398438	18.916296
-7261.904415	3824.221500	1986.432617	-33.542545
-7261.904415	3824.221500	1985.465820	72.124489
-7261.904415	3824.221500	1984.499023	36.698864
-7261.904415	3824.221500	1983.532227	-100.189003
-7261.904415	3824.221500	1982.565430	108.811974
-7261.904415	3824.221500	1981.597656	208.894165
-7261.904415	3824.221500	1980.629883	54.369690
-7261.904415	3824.221500	1979.662109	15.861918
-7261.904415	3824.221500	1978.694336	-67.202087
-7261.904415	3824.221500	1977.726563	22.471855
-7261.904415	3824.221500	1976.758789	-213.839691
-7261.904415	3824.221500	1975.790039	216.190369
-7261.904415	3824.221500	1974.821289	-25.223051
-7261.904415	3824.221500	1973.852539	-54.482250
-7261.904415	3824.221500	1972.883789	111.029953
-7261.904415	3824.221500	1971.915039	111.147514
-7261.904415	3824.221500	1970.945313	138.291489
-7261.904415	3824.221500	1969.975586	-152.689102
-7261.904415	3824.221500	1969.005859	113.393044
-7261.904415	3824.221500	1968.036133	219.104111
-7261.904415	3824.221500	1967.066406	65.980934
-7261.904415	3824.221500	1966.096680	171.489990
-7261.904415	3824.221500	1965.125977	15.803498
-7261.904415	3824.221500	1964.155273	138.360611
-7261.904415	3824.221500	1963.184570	26.899137
-7261.904415	3824.221500	1962.213867	196.027969
-7261.904415	3824.221500	1961.242188	131.212830
-7261.904415	3824.221500	1960.271484	113.103561
-7261.904415	3824.221500	1959.299805	-99.422714
-7261.904415	3824.221500	1958.328125	253.811630
-7261.904415	3824.221500	1957.356445	73.178932
-7261.904415	3824.221500	1956.384766	-164.001236
-7261.904415	3824.221500	1955.412109	-76.641731
-7261.904415	3824.221500	1954.439453	305.581665
-7261.904415	3824.221500	1953.467773	176.448425
-7261.904415	3824.221500	1952.495117	76.795471
-7261.904415	3824.221500	1951.521484	294.027924
-7261.904415	3824.221500	1950.548828	115.693954
-7261.904415	3824.221500	1949.575195	-109.278183
-7261.904415	3824.221500	1948.601563	38.979790
-7261.904415	3824.221500	1947.627930	162.590790
-7261.904415	3824.221500	1946.654297	246.844711
-7261.904415	3824.221500	1945.680664	218.151520
-7261.904415	3824.221500	1944.706055	226.231216
-7261.904415	3824.221500	1943.732422	-35.551292
-7261.904415	3824.221500	1942.757813	14.192356
-7261.904415	3824.221500	1941.783203	73.691803
-7261.904415	3824.221500	1940.807617	32.623802
-7261.904415	3824.221500	1939.833008	-138.368286
-7261.904415	3824.221500	1938.857422	-34.853516
-7261.904415	3824.221500	1937.881836	41.642860
-7261.904415	3824.221500	1936.906250	145.031464
-7261.904415	3824.221500	1935.930664	37.719009
-7261.904415	3824.221500	1934.955078	77.352371
-7261.904415	3824.221500	1933.978516	293.230957
-7261.904415	3824.221500	1933.001953	2.292363
-7261.904415	3824.221500	1932.025391	183.800598
-7261.904415	3824.221500	1931.048828	147.439514
-7261.904415	3824.221500	1930.072266	18.106842
-7261.904415	3824.221500	1929.094727	152.983582
-7261.904415	3824.221500	1928.118164	131.275726
-7261.904415	3824.221500	1927.140625	229.374268
-7261.904415	3824.221500	1926.163086	48.727501
-7261.904415	3824.221500	1925.184570	80.786743
-7261.904415	3824.221500	1924.207031	205.688660
-7261.904415	3824.221500	1923.228516	127.736137
-7261.904415	3824.221500	1922.250000	66.904724
-7261.904415	3824.221500	1921.271484	96.459076
-7261.904415	3824.221500	1920.292969	45.410858
-7261.904415	3824.221500	1919.314453	38.322517
-7261.904415	3824.221500	1918.334961	53.202766
-7261.904415	3824.221500	1917.355469	99.800491
-7261.904415	3824.221500	1916.375977	-36.633480
-7261.904415	3824.221500	1915.396484	24.596983
-7261.904415	3824.221500	1914.416992	-94.700699
-7261.904415	3824.221500	1913.436523	51.873661
-7261.904415	3824.221500	1912.457031	-8.865756
-7261.904415	3824.221500	1911.476563	44.999760
-7261.904415	3824.221500	1910.496094	-66.899239
-7261.904415	3824.221500	1909.515625	-10.603099
-7261.904415	3824.221500	1908.534180	48.111492
-7261.904415	3824.221500	1907.552734	-27.175762
-7261.904415	3824.221500	1906.572266	-99.995560
-7261.904415	3824.221500	1905.590820	287.459381
-7261.904415	3824.221500	1904.608398	17.407408
-7261.904415	3824.221500	1903.626953	15.228824
-7261.904415	3824.221500	1902.644531	-118.366776
-7261.904415	3824.221500	1901.663086	-105.907333
-7261.904415	3824.221500	1900.680664	-69.115898
-7261.904415	3824.221500	1899.698242	225.504990
-7261.904415	3824.221500	1898.714844	169.821060
-7261.904415	3824.221500	1897.732422	196.838409
-7261.904415	3824.221500	1896.749023	17.214838
-7261.904415	3824.221500	1895.765625	95.309998
-7261.904415	3824.221500	1894.782227	-18.594530
-7261.904415	3824.221500	1893.798828	44.919556
-7261.904415	3824.221500	1892.814453	42.831226
-7261.904415	3824.221500	1891.831055	-61.255039
-7261.904415	3824.221500	1890.846680	-155.577911
-7261.904415	3824.221500	1889.862305	92.475029
-7261.904415	3824.221500	1888.877930	68.575867
-7261.904415	3824.221500	1887.892578	-188.290588
-7261.904415	3824.221500	1886.908203	222.239716
-7261.904415	3824.221500	1885.922852	77.061920
-7261.904415	3824.221500	1884.937500	-26.814245
-7261.904415	3824.221500	1883.952148	116.725624
-7261.904415	3824.221500	1882.965820	-47.711628
-7261.904415	3824.221500	1881.980469	146.711487
-7261.904415	3824.221500	1880.994141	33.254410
-7261.904415	3824.221500	1880.007813	-169.810577
-7261.904415	3824.221500	1879.021484	191.743164
-7261.904415	3824.221500	1878.035156	153.475250
-7261.904415	3824.221500	1877.047852	57.106796
-7261.904415	3824.221500	1876.061523	35.853931
-7261.904415	3824.221500	1875.074219	-120.956436
-7261.904415	3824.221500	1874.086914	0.674362
-7261.904415	3824.221500	1873.098633	-66.499367
-7261.904415	3824.221500	1872.111328	23.644602
-7261.904415	3824.221500	1871.123047	-2.354860
-7261.904415	3824.221500	1870.135742	29.718149
-7261.904415	3824.221500	1869.147461	-49.450008
-7261.904415	3824.221500	1868.158203	-114.069328
-7261.904415	3824.221500	1867.169922	-108.546104
-7261.904415	3824.221500	1866.180664	54.091240
-7261.904415	3824.221500	1865.192383	-92.634956
-7261.904415	3824.221500	1864.203125	-0.102712
-7261.904415	3824.221500	1863.213867	34.432468
-7261.904415	3824.221500	1862.223633	39.985634
-7261.904415	3824.221500	1861.234375	38.303604
-7261.904415	3824.221500	1860.244141	-79.250366
-7261.904415	3824.221500	1859.253906	34.977287
-7261.904415	3824.221500	1858.263672	79.186592
-7261.904415	3824.221500	1857.273438	-14.145107
-7261.904415	3824.221500	1856.282227	-155.678528
-7261.904415	3824.221500	1855.291992	52.589794
-7261.904415	3824.221500	1854.300781	55.810284
-7261.904415	3824.221500	1853.309570	49.396172
-7261.904415	3824.221500	1852.317383	-258.333771
-7261.904415	3824.221500	1851.326172	-6.777549
-7261.904415	3824.221500	1850.333984	90.472137
-7261.904415	3824.221500	1849.342773	-43.595100
-7261.904415	3824.221500	1848.350586	80.140984
-7261.904415	3824.221500	1847.357422	167.714325
-7261.904415	3824.221500	1846.365234	12.063660
-7261.904415	3824.221500	1845.372070	116.487007
-7261.904415	3824.221500	1844.379883	98.120331
-7261.904415	3824.221500	1843.386719	-112.754951
-7261.904415	3824.221500	1842.393555	-106.994354
-7261.904415	3824.221500	1841.399414	-12.218524
-7261.904415	3824.221500	1840.406250	-32.922459
-7261.904415	3824.221500	1839.412109	-169.037582
-7261.904415	3824.221500	1838.417969	43.525860
-7261.904415	3824.221500	1837.423828	118.997002
-7261.904415	3824.221500	1836.429688	-137.222153
-7261.904415	3824.221500	1835.434570	58.412800
-7261.904415	3824.221500	1834.440430	78.597183
-7261.904415	3824.221500	1833.445313	218.881073
-7261.904415	3824.221500	1832.450195	109.351196
-7261.904415	3824.221500	1831.454102	175.150589
-7261.904415	3824.221500	1830.458984	-27.948338
-7261.904415	3824.221500	1829.462891	102.664078
-7261.904415	3824.221500	1828.466797	-69.141281
-7261.904415	3824.221500	1827.470703	-94.520065
-7261.904415	3824.221500	1826.474609	33.638660
-7261.904415	3824.221500	1825.478516	-15.730915
-7261.904415	3824.221500	1824.481445	59.613838
-7261.904415	3824.221500	1823.484375	-114.410339
-7261.904415	3824.221500	1822.487305	66.396362
-7261.904415	3824.221500	1821.490234	-109.958641
-7261.904415	3824.221500	1820.493164	173.812332
-7261.904415	3824.221500	1819.495117	146.036850
-7261.904415	3824.221500	1818.498047	39.225544
-7261.904415	3824.221500	1817.500000	136.011520
-7261.904415	3824.221500	1816.500977	273.463684
-7261.904415	3824.221500	1815.502930	61.352428
-7261.904415	3824.221500	1814.504883	40.793419
-7261.904415	3824.221500	1813.505859	36.991154
-7261.904415	3824.221500	1812.506836	-225.206970
-7261.904415	3824.221500	1811.507813	72.436913
-7261.904415	3824.221500	1810.508789	99.709488
-7261.904415	3824.221500	1809.508789	38.493958
-7261.904415	3824.221500	1808.508789	156.600616
-7261.904415	3824.221500	1807.508789	2.165768
-7261.904415	3824.221500	1806.508789	194.307144
-7261.904415	3824.221500	1805.508789	35.131763
-7261.904415	3824.221500	1804.508789	9.788609
-7261.904415	3824.221500	1803.507813	228.072952
-7261.904415	3824.221500	1802.506836	88.063667
-7261.904415	3824.221500	1801.505859	69.864830
-7261.904415	3824.221500	1800.504883	159.084427
-7261.904415	3824.221500	1799.502930	-202.817276
-7261.904415	3824.221500	1798.501953	60.594349
-7261.904415	3824.221500	1797.500000	66.235390
-7261.904415	3824.221500	1796.498047	205.441605
-7261.904415	3824.221500	1795.496094	282.576843
-7261.904415	3824.221500	1794.493164	190.380630
-7261.904415	3824.221500	1793.491211	207.867783
-7261.904415	3824.221500	1792.488281	34.657379
-7261.904415	3824.221500	1791.485352	-19.348324
-7261.904415	3824.221500	1790.482422	-56.668301
-7261.904415	3824.221500	1789.478516	-51.107021
-7261.904415	3824.221500	1788.475586	-109.869278
-7261.904415	3824.221500	1787.471680	143.320175
-7261.904415	3824.221500	1786.467773	36.899769
-7261.904415	3824.221500	1785.463867	70.944290
-7261.904415	3824.221500	1784.459961	150.178940
-7261.904415	3824.221500	1783.455078	160.364594
-7261.904415	3824.221500	1782.450195	189.560837
-7261.904415	3824.221500	1781.445313	171.159866
-7261.904415	3824.221500	1780.440430	2.928855
-7261.904415	3824.221500	1779.435547	-10.709716
-7261.904415	3824.221500	1778.429688	51.709068
-7261.904415	3824.221500	1777.424805	21.392883
-7261.904415	3824.221500	1776.418945	231.074661
-7261.904415	3824.221500	1775.413086	-8.374341
-7261.904415	3824.221500	1774.406250	75.300758
-7261.904415	3824.221500	1773.400391	211.172058
-7261.904415	3824.221500	1772.393555	187.881531
-7261.904415	3824.221500	1771.386719	133.716522
-7261.904415	3824.221500	1770.379883	122.276291
-7261.904415	3824.221500	1769.373047	-0.717847
-7261.904415	3824.221500	1768.365234	104.089500
-7261.904415	3824.221500	1767.358398	-35.503738
-7261.904415	3824.221500	1766.350586	81.084633
-7261.904415	3824.221500	1765.342773	313.801270
-7261.904415	3824.221500	1764.334961	24.814800
-7261.904415	3824.221500	1763.326172	174.442413
-7261.904415	3824.221500	1762.318359	184.160995
-7261.904415	3824.221500	1761.309570	-47.840038
-7261.904415	3824.221500	1760.300781	54.263058
-7261.904415	3824.221500	1759.291016	-9.501649
-7261.904415	3824.221500	1758.282227	101.976707
-7261.904415	3824.221500	1757.272461	80.795586
-7261.904415	3824.221500	1756.262695	43.024921
-7261.904415	3824.221500	1755.252930	-132.031860
-7261.904415	3824.221500	1754.243164	178.056580
-7261.904415	3824.221500	1753.233398	109.453033
-7261.904415	3824.221500	1752.222656	-27.749121
-7261.904415	3824.221500	1751.211914	-51.406567
-7261.904415	3824.221500	1750.201172	265.415009
-7261.904415	3824.221500	1749.190430	-98.776894
-7261.904415	3824.221500	1748.179688	0.419848
-7261.904415	3824.221500	1747.167969	151.540848
-7261.904415	3824.221500	1746.156250	-99.094612
-7261.904415	3824.221500	1745.144531	210.204605
-7261.904415	3824.221500	1744.132813	30.450962
-7261.904415	3824.221500	1743.121094	160.081711
-7261.904415	3824.221500	1742.108398	25.204643
-7261.904415	3824.221500	1741.095703	-27.033667
-7261.904415	3824.221500	1740.083008	-176.043594
-7261.904415	3824.221500	1739.070313	83.184387
-7261.904415	3824.221500	1738.057617	167.704773
-7261.904415	3824.221500	1737.043945	-35.600372
-7261.904415	3824.221500	1736.030273	117.237000
-7261.904415	3824.221500	1735.016602	-93.118279
-7261.904415	3824.221500	1734.002930	-13.469131
-7261.904415	3824.221500	1732.989258	150.966476
-7261.904415	3824.221500	1731.974609	-26.380661
-7261.904415	3824.221500	1730.959961	258.085602
-7261.904415	3824.221500	1729.945313	198.498840
-7261.904415	3824.221500	1728.930664	72.959526
-7261.904415	3824.221500	1727.916016	88.714539
-7261.904415	3824.221500	1726.900391	-102.740990
-7261.904415	3824.221500	1725.885742	58.908848
-7261.904415	3824.221500	1724.870117	79.262825
-7261.904415	3824.221500	1723.853516	-11.009363
-7261.904415	3824.221500	1722.837891	-33.059380
-7261.904415	3824.221500	1721.822266	-104.526901
-7261.904415	3824.221500	1720.805664	-74.886688
-7261.904415	3824.221500	1719.789063	-151.089081
-7261.904415	3824.221500	1718.772461	47.723217
-7261.904415	3824.221500	1717.754883	53.711128
-7261.904415	3824.221500	1716.738281	118.406021
-7261.904415	3824.221500	1715.720703	117.261612
-7261.904415	3824.221500	1714.703125	-3.706425
-7261.904415	3824.221500	1713.685547	-108.224739
-7261.904415	3824.221500	1712.667969	162.926331
-7261.904415	3824.221500	1711.649414	171.022751
-7261.904415	3824.221500	1710.630859	96.935822
-7261.904415	3824.221500	1709.612305	15.801216
-7261.904415	3824.221500	1708.593750	35.545647
-7261.904415	3824.221500	1707.575195	-108.949104
-7261.904415	3824.221500	1706.555664	349.292999
-7261.904415	3824.221500	1705.536133	-149.337006
-7261.904415	3824.221500	1704.516602	-17.192682
-7261.904415	3824.221500	1703.497070	150.022812
-7261.904415	3824.221500	1702.477539	359.319244
-7261.904415	3824.221500	1701.457031	38.989895
-7261.904415	3824.221500	1700.437500	194.278214
-7261.904415	3824.221500	1699.416992	143.369385
-7261.904415	3824.221500	1698.395508	202.496719
-7261.904415	3824.221500	1697.375000	135.145081
-7261.904415	3824.221500	1696.354492	194.181961
-7261.904415	3824.221500	1695.333008	131.464920
-7261.904415	3824.221500	1694.311523	28.959623
-7261.904415	3824.221500	1693.290039	155.714920
-7261.904415	3824.221500	1692.267578	104.626404
-7261.904415	3824.221500	1691.246094	32.477215
-7261.904415	3824.221500	1690.223633	243.217651
-7261.904415	3824.221500	1689.201172	421.115295
-7261.904415	3824.221500	1688.178711	285.735657
-7261.904415	3824.221500	1687.155273	355.996643
-7261.904415	3824.221500	1686.132813	477.593872
-7261.904415	3824.221500	1685.109375	150.640381
-7261.904415	3824.221500	1684.085938	157.726288
-7261.904415	3824.221500	1683.062500	260.503998
-7261.904415	3824.221500	1682.039063	365.540985
-7261.904415	3824.221500	1681.014648	288.450317
-7261.904415	3824.221500	1679.990234	302.361267
-7261.904415	3824.221500	1678.965820	236.907745
-7261.904415	3824.221500	1677.941406	353.387726
-7261.904415	3824.221500	1676.916992	460.460510
-7261.904415	3824.221500	1675.891602	59.139416
-7261.904415	3824.221500	1674.866211	282.717987
-7261.904415	3824.221500	1673.840820	112.267609
-7261.904415	3824.221500	1672.815430	209.840240
-7261.904415	3824.221500	1671.790039	293.362762
-7261.904415	3824.221500	1670.763672	404.768280
-7261.904415	3824.221500	1669.737305	388.001892
-7261.904415	3824.221500	1668.710938	271.078430
-7261.904415	3824.221500	1667.684570	354.385712
-7261.904415	3824.221500	1666.658203	300.293091
-7261.904415	3824.221500	1665.630859	276.439606
-7261.904415	3824.221500	1664.603516	173.452164
-7261.904415	3824.221500	1663.576172	396.156128
-7261.904415	3824.221500	1662.548828	379.176727
-7261.904415	3824.221500	1661.520508	448.208557
-7261.904415	3824.221500	1660.493164	491.609070
-7261.904415	3824.221500	1659.464844	539.606140
-7261.904415	3824.221500	1658.436523	383.033905
-7261.904415	3824.221500	1657.408203	342.670929
-7261.904415	3824.221500	1656.378906	434.710693
-7261.904415	3824.221500	1655.350586	350.158447
-7261.904415	3824.221500	1654.321289	409.585510
-7261.904415	3824.221500	1653.291992	594.337952
-7261.904415	3824.221500	1652.261719	583.988098
-7261.904415	3824.221500	1651.232422	752.327576
-7261.904415	3824.221500	1650.202148	470.392334
-7261.904415	3824.221500	1649.171875	422.860565
-7261.904415	3824.221500	1648.141602	649.028442
-7261.904415	3824.221500	1647.111328	543.442139
-7261.904415	3824.221500	1646.080078	542.205078
-7261.904415	3824.221500	1645.049805	582.669800
-7261.904415	3824.221500	1644.018555	528.058533
-7261.904415	3824.221500	1642.987305	552.228271
-7261.904415	3824.221500	1641.955078	724.638000
-7261.904415	3824.221500	1640.923828	628.248718
-7261.904415	3824.221500	1639.891602	768.096985
-7261.904415	3824.221500	1638.859375	780.508728
-7261.904415	3824.221500	1637.827148	691.023315
-7261.904415	3824.221500	1636.794922	592.286560
-7261.904415	3824.221500	1635.761719	815.232788
-7261.904415	3824.221500	1634.729492	781.242310
-7261.904415	3824.221500	1633.696289	594.557556
-7261.904415	3824.221500	1632.662109	583.692322
-7261.904415	3824.221500	1631.628906	441.002808
-7261.904415	3824.221500	1630.594727	645.132507
-7261.904415	3824.221500	1629.561523	659.619324
-7261.904415	3824.221500	1628.527344	687.937683
-7261.904415	3824.221500	1627.493164	725.463745
-7261.904415	3824.221500	1626.458008	839.182312
-7261.904415	3824.221500	1625.423828	805.015259
-7261.904415	3824.221500	1624.388672	574.547363
-7261.904415	3824.221500	1623.353516	484.983734
-7261.904415	3824.221500	1622.318359	797.088501
-7261.904415	3824.221500	1621.282227	841.326965
-7261.904415	3824.221500	1620.247070	433.266693
-7261.904415	3824.221500	1619.210938	712.831055
-7261.904415	3824.221500	1618.174805	680.879700
-7261.904415	3824.221500	1617.137695	884.139587
-7261.904415	3824.221500	1616.101563	1041.190186
-7261.904415	3824.221500	1615.064453	778.606079
-7261.904415	3824.221500	1614.027344	877.953064
-7261.904415	3824.221500	1612.990234	875.852722
-7261.904415	3824.221500	1611.953125	802.313171
-7261.904415	3824.221500	1610.916016	735.694214
-7261.904415	3824.221500	1609.877930	777.319397
-7261.904415	3824.221500	1608.839844	934.037842
-7261.904415	3824.221500	1607.801758	844.353882
-7261.904415	3824.221500	1606.763672	789.213135
-7261.904415	3824.221500	1605.724609	867.541748
-7261.904415	3824.221500	1604.685547	798.576538
-7261.904415	3824.221500	1603.646484	672.115845
-7261.904415	3824.221500	1602.607422	888.365051
-7261.904415	3824.221500	1601.568359	732.013123
-7261.904415	3824.221500	1600.528320	890.659912
-7261.904415	3824.221500	1599.489258	911.323792
-7261.904415	3824.221500	1598.449219	920.472534
-7261.904415	3824.221500	1597.408203	849.183716
-7261.904415	3824.221500	1596.368164	789.400574
-7261.904415	3824.221500	1595.327148	830.678772
-7261.904415	3824.221500	1594.287109	952.301392
-7261.904415	3824.221500	1593.246094	809.843628
-7261.904415	3824.221500	1592.204102	853.349854
-7261.904415	3824.221500	1591.163086	899.128662
-7261.904415	3824.221500	1590.121094	720.016785
-7261.904415	3824.221500	1589.079102	914.889038
-7261.904415	3824.221500	1588.037109	779.403992
-7261.904415	3824.221500	1586.995117	611.858093
-7261.904415	3824.221500	1585.953125	900.610107
-7261.904415	3824.221500	1584.910156	781.222717
-7261.904415	3824.221500	1583.867188	652.706482
-7261.904415	3824.221500	1582.824219	888.553955
-7261.904415	3824.221500	1581.781250	485.149384
-7261.904415	3824.221500	1580.737305	537.686340
-7261.904415	3824.221500	1579.693359	700.115723
-7261.904415	3824.221500	1578.649414	715.945801
-7261.904415	3824.221500	1577.605469	571.530579
-7261.904415	3824.221500	1576.561523	793.347107
-7261.904415	3824.221500	1575.516602	674.130798
-7261.904415	3824.221500	1574.472656	552.672852
-7261.904415	3824.221500	1573.427734	557.057007
-7261.904415	3824.221500	1572.381836	309.880463
-7261.904415	3824.221500	1571.336914	419.479279
-7261.904415	3824.221500	1570.291016	391.872803
-7261.904415	3824.221500	1569.246094	597.400024
-7261.904415	3824.221500	1568.200195	498.931885
-7261.904415	3824.221500	1567.153320	619.818420
-7261.904415	3824.221500	1566.107422	482.552948
-7261.904415	3824.221500	1565.060547	575.991760
-7261.904415	3824.221500	1564.013672	550.665833
-7261.904415	3824.221500	1562.966797	559.594299
-7261.904415	3824.221500	1561.919922	472.662323
-7261.904415	3824.221500	1560.872070	493.011688
-7261.904415	3824.221500	1559.825195	647.966675
-7261.904415	3824.221500	1558.777344	565.634644
-7261.904415	3824.221500	1557.729492	357.908875
-7261.904415	3824.221500	1556.680664	467.199738
-7261.904415	3824.221500	1555.632813	414.602020
-7261.904415	3824.221500	1554.583984	437.238678
-7261.904415	3824.221500	1553.535156	496.333069
-7261.904415	3824.221500	1552.486328	521.236328
-7261.904415	3824.221500	1551.436523	416.293304
-7261.904415	3824.221500	1550.387695	463.990356
-7261.904415	3824.221500	1549.337891	429.701477
-7261.904415	3824.221500	1548.288086	258.842438
-7261.904415	3824.221500	1547.238281	240.556259
-7261.904415	3824.221500	1546.187500	254.141068
-7261.904415	3824.221500	1545.136719	292.757660
-7261.904415	3824.221500	1544.086914	426.911591
-7261.904415	3824.221500	1543.035156	338.135010
-7261.904415	3824.221500	1541.984375	419.946442
-7261.904415	3824.221500	1540.933594	224.383301
-7261.904415	3824.221500	1539.881836	403.941071
-7261.904415	3824.221500	1538.830078	367.552887
-7261.904415	3824.221500	1537.778320	276.663605
-7261.904415	3824.221500	1536.725586	381.175934
-7261.904415	3824.221500	1535.673828	397.090454
-7261.904415	3824.221500	1534.621094	483.400665
-7261.904415	3824.221500	1533.568359	381.260406
-7261.904415	3824.221500	1532.515625	422.173035
-7261.904415	3824.221500	1531.461914	242.954453
-7261.904415	3824.221500	1530.409180	313.404877
-7261.904415	3824.221500	1529.355469	370.230865
-7261.904415	3824.221500	1528.301758	309.114471
-7261.904415	3824.221500	1527.247070	223.091370
-7261.904415	3824.221500	1526.193359	218.740936
-7261.904415	3824.221500	1525.138672	264.273773
-7261.904415	3824.221500	1524.083984	191.963654
-7261.904415	3824.221500	1523.029297	124.232872
-7261.904415	3824.221500	1521.974609	108.651199
-7261.904415	3824.221500	1520.918945	34.204617
-7261.904415	3824.221500	1519.863281	197.573059
-7261.904415	3824.221500	1518.807617	161.667114
-7261.904415	3824.221500	1517.751953	164.278198
-7261.904415	3824.221500	1516.696289	334.376465
-7261.904415	3824.221500	1515.639648	103.941162
-7261.904415	3824.221500	1514.583008	192.586670
-7261.904415	3824.221500	1513.526367	188.490173
-7261.904415	3824.221500	1512.469727	222.860062
-7261.904415	3824.221500	1511.412109	76.369057
-7261.904415	3824.221500	1510.355469	49.765747
-7261.904415	3824.221500	1509.297852	192.690063
-7261.904415	3824.221500	1508.240234	-77.905846
-7261.904415	3824.221500	1507.181641	132.806061
-7261.904415	3824.221500	1506.124023	-6.620162
-7261.904415	3824.221500	1505.065430	127.269104
-7261.904415	3824.221500	1504.006836	-118.163002
-7261.904415	3824.221500	1502.948242	27.035069
-7261.904415	3824.221500	1501.888672	-55.737206
-7261.904415	3824.221500	1500.830078	3.704803
-7261.904415	3824.221500	1499.770508	-49.646954
-7261.904415	3824.221500	1498.710938	39.145714
-7261.904415	3824.221500	1497.650391	-14.137733
-7261.904415	3824.221500	1496.590820	103.981033
-7261.904415	3824.221500	1495.530273	-235.507767
-7261.904415	3824.221500	1494.469727	-245.794968
-7261.904415	3824.221500	1493.409180	9.834614
-7261.904415	3824.221500	1492.348633	76.159645
-7261.904415	3824.221500	1491.287109	-53.466995
-7261.904415	3824.221500	1490.225586	-221.290985
-7261.904415	3824.221500	1489.164063	-125.599106
-7261.904415	3824.221500	1488.102539	-252.760132
-7261.904415	3824.221500	1487.041016	-17.499350
-7261.904415	3824.221500	1485.978516	-135.567245
-7261.904415	3824.221500	1484.916016	88.371384
-7261.904415	3824.221500	1483.853516	44.640110
-7261.904415	3824.221500	1482.791016	-100.250992
-7261.904415	3824.221500	1481.727539	29.229916
-7261.904415	3824.221500	1480.664063	-315.590881
-7261.904415	3824.221500	1479.600586	-80.418167
-7261.904415	3824.221500	1478.537109	-216.017242
-7261.904415	3824.221500	1477.473633	25.796738
-7261.904415	3824.221500	1476.409180	-40.101444
-7261.904415	3824.221500	1475.344727	93.858437
-7261.904415	3824.221500	1474.280273	207.667877
-7261.904415	3824.221500	1473.215820	99.329109
-7261.904415	3824.221500	1472.151367	-161.674179
-7261.904415	3824.221500	1471.085938	-85.834251
-7261.904415	3824.221500	1470.020508	70.533180
-7261.904415	3824.221500	1468.955078	65.656898
-7261.904415	3824.221500	1467.888672	253.137512
-7261.904415	3824.221500	1466.823242	306.526581
-7261.904415	3824.221500	1465.756836	28.446972
-7261.904415	3824.221500	1464.690430	225.287842
-7261.904415	3824.221500	1463.624023	356.689087
-7261.904415	3824.221500	1462.556641	112.376480
-7261.904415	3824.221500	1461.490234	155.039856
-7261.904415	3824.221500	1460.422852	253.094452
-7261.904415	3824.221500	1459.355469	234.679184
-7261.904415	3824.221500	1458.287109	161.139130
-7261.904415	3824.221500	1457.219727	261.439178
-7261.904415	3824.221500	1456.151367	173.921585
-7261.904415	3824.221500	1455.083008	165.164597
-7261.904415	3824.221500	1454.014648	133.594208
-7261.904415	3824.221500	1452.945313	343.833954
-7261.904415	3824.221500	1451.876953	110.700867
-7261.904415	3824.221500	1450.807617	23.382317
-7261.904415	3824.221500	1449.738281	214.059814
-7261.904415	3824.221500	1448.668945	150.632980
-7261.904415	3824.221500	1447.598633	59.382759
-7261.904415	3824.221500	1446.528320	292.135101
-7261.904415	3824.221500	1445.458008	219.972168
-7261.904415	3824.221500	1444.387695	354.163696
-7261.904415	3824.221500	1443.317383	210.942245
-7261.904415	3824.221500	1442.246094	70.990364
-7261.904415	3824.221500	1441.174805	271.823181
-7261.904415	3824.221500	1440.103516	236.142975
-7261.904415	3824.221500	1439.032227	230.855194
-7261.904415	3824.221500	1437.960938	89.895515
-7261.904415	3824.221500	1436.888672	191.815796
-7261.904415	3824.221500	1435.816406	263.938538
-7261.904415	3824.221500	1434.744141	-27.887457
-7261.904415	3824.221500	1433.670898	142.037201
-7261.904415	3824.221500	1432.598633	164.237900
-7261.904415	3824.221500	1431.525391	-7.006704
-7261.904415	3824.221500	1430.452148	-33.374332
-7261.904415	3824.221500	1429.378906	-20.444958
-7261.904415	3824.221500	1428.304688	115.846283
-7261.904415	3824.221500	1427.231445	108.729370
-7261.904415	3824.221500	1426.157227	275.497040
-7261.904415	3824.221500	1425.083008	-48.143867
-7261.904415	3824.221500	1424.007813	25.408745
-7261.904415	3824.221500	1422.933594	-163.498322
-7261.904415	3824.221500	1421.858398	129.517883
-7261.904415	3824.221500	1420.783203	39.894402
-7261.904415	3824.221500	1419.708008	154.029755
-7261.904415	3824.221500	1418.631836	225.690323
-7261.904415	3824.221500	1417.555664	128.807175
-7261.904415	3824.221500	1416.479492	177.802246
-7261.904415	3824.221500	1415.403320	133.444122
-7261.904415	3824.221500	1414.327148	39.567791
-7261.904415	3824.221500	1413.250000	4.918366
-7261.904415	3824.221500	1412.173828	36.177647
-7261.904415	3824.221500	1411.096680	71.996979
-7261.904415	3824.221500	1410.018555	-0.338329
-7261.904415	3824.221500	1408.941406	-7.565710
-7261.904415	3824.221500	1407.863281	-29.883171
-7261.904415	3824.221500	1406.785156	192.365448
-7261.904415	3824.221500	1405.707031	33.168430
-7261.904415	3824.221500	1404.628906	195.308960
-7261.904415	3824.221500	1403.549805	-1.364936
-7261.904415	3824.221500	1402.470703	-70.159233
-7261.904415	3824.221500	1401.391602	-19.308313
-7261.904415	3824.221500	1400.312500	100.619431
-7261.904415	3824.221500	1399.233398	91.963814
-7261.904415	3824.221500	1398.153320	137.332809
-7261.904415	3824.221500	1397.073242	54.267860
-7261.904415	3824.221500	1395.993164	31.030659
-7261.904415	3824.221500	1394.913086	-59.087841
-7261.904415	3824.221500	1393.832031	62.130844
-7261.904415	3824.221500	1392.750977	-31.996634
-7261.904415	3824.221500	1391.669922	11.649777
-7261.904415	3824.221500	1390.588867	-49.161438
-7261.904415	3824.221500	1389.506836	167.928009
-7261.904415	3824.221500	1388.425781	14.551945
-7261.904415	3824.221500	1387.343750	-72.207710
-7261.904415	3824.221500	1386.261719	-26.154715
-7261.904415	3824.221500	1385.178711	111.472694
-7261.904415	3824.221500	1384.096680	296.727905
-7261.904415	3824.221500	1383.013672	223.022247
-7261.904415	3824.221500	1381.930664	142.294952
-7261.904415	3824.221500	1380.846680	212.969055
-7261.904415	3824.221500	1379.763672	53.217709
-7261.904415	3824.221500	1378.679688	239.988708
-7261.904415	3824.221500	1377.595703	176.751358
-7261.904415	3824.221500	1376.511719	240.519196
-7261.904415	3824.221500	1375.427734	84.848732
-7261.904415	3824.221500	1374.342773	63.700352
-7261.904415	3824.221500	1373.257813	-50.419727
-7261.904415	3824.221500	1372.172852	99.156311
-7261.904415	3824.221500	1371.087891	134.645111
-7261.904415	3824.221500	1370.001953	89.297272
-7261.904415	3824.221500	1368.916992	123.896332
-7261.904415	3824.221500	1367.831055	253.766907
-7261.904415	3824.221500	1366.744141	71.287865
-7261.904415	3824.221500	1365.658203	40.406536
-7261.904415	3824.221500	1364.571289	56.149937
-7261.904415	3824.221500	1363.484375	-116.029869
-7261.904415	3824.221500	1362.397461	217.705795
-7261.904415	3824.221500	1361.310547	-46.642273
-7261.904415	3824.221500	1360.222656	21.116299
-7261.904415	3824.221500	1359.135742	10.897080
-7261.904415	3824.221500	1358.047852	-0.314444
-7261.904415	3824.221500	1356.958984	115.503128
-7261.904415	3824.221500	1355.871094	177.352005
-7261.904415	3824.221500	1354.782227	-37.101410
-7261.904415	3824.221500	1353.693359	83.317177
-7261.904415	3824.221500	1352.604492	180.187637
-7261.904415	3824.221500	1351.515625	43.840790
-7261.904415	3824.221500	1350.425781	90.806213
-7261.904415	3824.221500	1349.335938	0.696530
-7261.904415	3824.221500	1348.246094	111.583755
-7261.904415	3824.221500	1347.156250	41.208874
-7261.904415	3824.221500	1346.066406	131.058929
-7261.904415	3824.221500	1344.975586	159.480087
-7261.904415	3824.221500	1343.884766	207.527130
-7261.904415	3824.221500	1342.793945	255.668549
-7261.904415	3824.221500	1341.702148	294.530884
-7261.904415	3824.221500	1340.611328	102.989212
-7261.904415	3824.221500	1339.519531	2.714872
-7261.904415	3824.221500	1338.427734	112.214584
-7261.904415	3824.221500	1337.334961	159.580841
-7261.904415	3824.221500	1336.243164	-66.664131
-7261.904415	3824.221500	1335.150391	244.632736
-7261.904415	3824.221500	1334.057617	153.491669
-7261.904415	3824.221500	1332.964844	191.212189
-7261.904415	3824.221500	1331.871094	184.621307
-7261.904415	3824.221500	1330.778320	42.013359
-7261.904415	3824.221500	1329.684570	176.508530
-7261.904415	3824.221500	1328.590820	39.694252
-7261.904415	3824.221500	1327.496094	52.316608
-7261.904415	3824.221500	1326.402344	110.650093
-7261.904415	3824.221500	1325.307617	71.530029
-7261.904415	3824.221500	1324.212891	-45.845013
-7261.904415	3824.221500	1323.117188	60.321987
-7261.904415	3824.221500	1322.022461	-36.203560
-7261.904415	3824.221500	1320.926758	75.827003
-7261.904415	3824.221500	1319.831055	3.386527
-7261.904415	3824.221500	1318.735352	145.357498
-7261.904415	3824.221500	1317.638672	158.416946
-7261.904415	3824.221500	1316.542969	268.118042
-7261.904415	3824.221500	1315.446289	163.908966
-7261.904415	3824.221500	1314.349609	222.830765
-7261.904415	3824.221500	1313.251953	188.945328
-7261.904415	3824.221500	1312.155273	139.225510
-7261.904415	3824.221500	1311.057617	99.922432
-7261.904415	3824.221500	1309.959961	67.081902
-7261.904415	3824.221500	1308.862305	18.851999
-7261.904415	3824.221500	1307.763672	135.476410
-7261.904415	3824.221500	1306.665039	171.165878
-7261.904415	3824.221500	1305.566406	167.462021
-7261.904415	3824.221500	1304.467773	300.696503
-7261.904415	3824.221500	1303.369141	297.173645
-7261.904415	3824.221500	1302.269531	90.238846
-7261.904415	3824.221500	1301.169922	57.188606
-7261.904415	3824.221500	1300.070313	192.317474
-7261.904415	3824.221500	1298.970703	190.962967
-7261.904415	3824.221500	1297.870117	69.666855
-7261.904415	3824.221500	1296.769531	25.791935
-7261.904415	3824.221500	1295.668945	-19.015684
-7261.904415	3824.221500	1294.568359	93.676224
-7261.904415	3824.221500	1293.466797	155.883163
-7261.904415	3824.221500	1292.366211	257.387451
-7261.904415	3824.221500	1291.264648	232.847473
-7261.904415	3824.221500	1290.162109	159.548996
-7261.904415	3824.221500	1289.060547	9.616025
-7261.904415	3824.221500	1287.958008	214.150406
-7261.904415	3824.221500	1286.855469	9.174834
-7261.904415	3824.221500	1285.752930	76.023888
-7261.904415	3824.221500	1284.650391	186.677643
-7261.904415	3824.221500	1283.546875	-16.353107
-7261.904415	3824.221500	1282.444336	135.884430
-7261.904415	3824.221500	1281.339844	114.049538
-7261.904415	3824.221500	1280.236328	-27.699522
-7261.904415	3824.221500	1279.132813	238.291641
-7261.904415	3824.221500	1278.028320	142.490967
-7261.904415	3824.221500	1276.923828	-31.108337
-7261.904415	3824.221500	1275.819336	-3.215676
-7261.904415	3824.221500	1274.713867	263.740479
-7261.904415	3824.221500	1273.608398	116.308891
-7261.904415	3824.221500	1272.503906	51.571514
-7261.904415	3824.221500	1271.397461	-130.836273
-7261.904415	3824.221500	1270.291992	-49.477432
-7261.904415	3824.221500	1269.185547	-0.341230
-7261.904415	3824.221500	1268.080078	122.250175
-7261.904415	3824.221500	1266.972656	97.290787
-7261.904415	3824.221500	1265.866211	-67.093140
-7261.904415	3824.221500	1264.759766	-154.946198
-7261.904415	3824.221500	1263.652344	-32.874447
-7261.904415	3824.221500	1262.544922	-11.956225
-7261.904415	3824.221500	1261.436523	-143.654007
-7261.904415	3824.221500	1260.329102	-98.599762
-7261.904415	3824.221500	1259.220703	-103.788300
-7261.904415	3824.221500	1258.112305	78.873833
-7261.904415	3824.221500	1257.003906	-74.100105
-7261.904415	3824.221500	1255.895508	-131.937103
-7261.904415	3824.221500	1254.786133	-95.589775
-7261.904415	3824.221500	1253.676758	93.614372
-7261.904415	3824.221500	1252.567383	-82.359245
-7261.904415	3824.221500	1251.458008	-31.464180
-7261.904415	3824.221500	1250.347656	-74.016296
-7261.904415	3824.221500	1249.237305	-36.008167
-7261.904415	3824.221500	1248.126953	128.245331
-7261.904415	3824.221500	1247.016602	41.069954
-7261.904415	3824.221500	1245.905273	27.811981
-7261.904415	3824.221500	1244.793945	-44.724323
-7261.904415	3824.221500	1243.682617	-1.181960
-7261.904415	3824.221500	1242.571289	14.325372
-7261.904415	3824.221500	1241.459961	-6.806266
-7261.904415	3824.221500	1240.347656	5.669851
-7261.904415	3824.221500	1239.235352	-24.868822
-7261.904415	3824.221500	1238.123047	-1.045750
-7261.904415	3824.221500	1237.009766	50.339912
-7261.904415	3824.221500	1235.897461	163.481918
-7261.904415	3824.221500	1234.784180	-75.668808
-7261.904415	3824.221500	1233.670898	25.675331
-7261.904415	3824.221500	1232.556641	32.190788
-7261.904415	3824.221500	1231.443359	-94.011749
-7261.904415	3824.221500	1230.329102	-54.817219
-7261.904415	3824.221500	1229.214844	-86.732994
-7261.904415	3824.221500	1228.099609	23.579527
-7261.904415	3824.221500	1226.985352	-92.352989
-7261.904415	3824.221500	1225.870117	36.803303
-7261.904415	3824.221500	1224.754883	-50.608391
-7261.904415	3824.221500	1223.639648	2.364656
-7261.904415	3824.221500	1222.523438	87.214363
-7261.904415	3824.221500	1221.408203	-3.512099
-7261.904415	3824.221500	1220.291992	17.406830
-7261.904415	3824.221500	1219.174805	22.564507
-7261.904415	3824.221500	1218.058594	-9.786836
-7261.904415	3824.221500	1216.941406	14.992351
-7261.904415	3824.221500	1215.824219	18.466949
-7261.904415	3824.221500	1214.707031	123.916840
-7261.904415	3824.221500	1213.589844	-13.006023
-7261.904415	3824.221500	1212.471680	-39.985485
-7261.904415	3824.221500	1211.353516	-41.817978
-7261.904415	3824.221500	1210.235352	42.119156
-7261.904415	3824.221500	1209.117188	-100.708649
-7261.904415	3824.221500	1207.998047	-75.078003
-7261.904415	3824.221500	1206.878906	-163.986511
-7261.904415	3824.221500	1205.759766	-71.503883
-7261.904415	3824.221500	1204.640625	-18.287720
-7261.904415	3824.221500	1203.520508	-181.465225
-7261.904415	3824.221500	1202.401367	-147.893494
-7261.904415	3824.221500	1201.281250	-45.582394
-7261.904415	3824.221500	1200.160156	-3.573328
-7261.904415	3824.221500	1199.040039	-28.654985
-7261.904415	3824.221500	1197.918945	-127.817741
-7261.904415	3824.221500	1196.797852	75.269951
-7261.904415	3824.221500	1195.676758	-13.972340
-7261.904415	3824.221500	1194.555664	-48.781300
-7261.904415	3824.221500	1193.433594	24.751966
-7261.904415	3824.221500	1192.311523	-113.066338
-7261.904415	3824.221500	1191.189453	14.069091
-7261.904415	3824.221500	1190.066406	-103.757072
-7261.904415	3824.221500	1188.944336	-75.500374
-7261.904415	3824.221500	1187.821289	-55.907139
-7261.904415	3824.221500	1186.698242	-131.386963
-7261.904415	3824.221500	1185.574219	-186.886429
-7261.904415	3824.221500	1184.451172	17.689770
-7261.904415	3824.221500	1183.327148	131.632339
-7261.904415	3824.221500	1182.203125	45.348175
-7261.904415	3824.221500	1181.078125	73.760750
-7261.904415	3824.221500	1179.954102	-17.626339
-7261.904415	3824.221500	1178.829102	14.725620
-7261.904415	3824.221500	1177.704102	-109.020592
-7261.904415	3824.221500	1176.579102	-56.109436
-7261.904415	3824.221500	1175.453125	-87.272736
-7261.904415	3824.221500	1174.327148	176.030258
-7261.904415	3824.221500	1173.201172	23.561951
-7261.904415	3824.221500	1172.075195	8.383543
-7261.904415	3824.221500	1170.949219	53.174431
-7261.904415	3824.221500	1169.822266	-68.939835
-7261.904415	3824.221500	1168.695313	-73.590309
-7261.904415	3824.221500	1167.568359	21.135815
-7261.904415	3824.221500	1166.440430	33.514439
-7261.904415	3824.221500	1165.313477	-16.029583
-7261.904415	3824.221500	1164.185547	-20.156067
-7261.904415	3824.221500	1163.057617	30.530386
-7261.904415	3824.221500	1161.928711	83.344711
-7261.904415	3824.221500	1160.800781	-27.266640
-7261.904415	3824.221500	1159.671875	-85.731155
-7261.904415	3824.221500	1158.541992	-13.105783
-7261.904415	3824.221500	1157.413086	54.143921
-7261.904415	3824.221500	1156.283203	112.035698
-7261.904415	3824.221500	1155.154297	20.598211
-7261.904415	3824.221500	1154.023438	86.347832
-7261.904415	3824.221500	1152.893555	-113.471573
-7261.904415	3824.221500	1151.763672	20.847456
-7261.904415	3824.221500	1150.632813	-74.984772
-7261.904415	3824.221500	1149.501953	-30.353876
-7261.904415	3824.221500	1148.370117	-122.341568
-7261.904415	3824.221500	1147.239258	-4.971661
-7261.904415	3824.221500	1146.107422	-40.808712
-7261.904415	3824.221500	1144.975586	1.834002
-7261.904415	3824.221500	1143.843750	-34.794712
-7261.904415	3824.221500	1142.710938	-69.057869
-7261.904415	3824.221500	1141.578125	86.645363
-7261.904415	3824.221500	1140.445313	50.493511
-7261.904415	3824.221500	1139.312500	75.892616
-7261.904415	3824.221500	1138.178711	33.150494
-7261.904415	3824.221500	1137.045898	46.430206
-7261.904415	3824.221500	1135.912109	91.639565
-7261.904415	3824.221500	1134.777344	43.951191
-7261.904415	3824.221500	1133.643555	139.540939
-7261.904415	3824.221500	1132.508789	117.558739
-7261.904415	3824.221500	1131.374023	175.416168
-7261.904415	3824.221500	1130.239258	138.845490
-7261.904415	3824.221500	1129.104492	300.810394
-7261.904415	3824.221500	1127.968750	216.007233
-7261.904415	3824.221500	1126.833008	136.077209
-7261.904415	3824.221500	1125.697266	154.296524
-7261.904415	3824.221500	1124.560547	126.195465
-7261.904415	3824.221500	1123.424805	-32.042858
-7261.904415	3824.221500	1122.288086	310.201843
-7261.904415	3824.221500	1121.151367	145.710495
-7261.904415	3824.221500	1120.013672	-18.484690
-7261.904415	3824.221500	1118.876953	254.883530
-7261.904415	3824.221500	1117.739258	188.332764
-7261.904415	3824.221500	1116.601563	45.466320
-7261.904415	3824.221500	1115.462891	84.952049
-7261.904415	3824.221500	1114.324219	84.411880
-7261.904415	3824.221500	1113.186523	114.253952
-7261.904415	3824.221500	1112.046875	126.464348
-7261.904415	3824.221500	1110.908203	16.473780
-7261.904415	3824.221500	1109.769531	145.369995
-7261.904415	3824.221500	1108.629883	87.115654
-7261.904415	3824.221500	1107.490234	177.330887
-7261.904415	3824.221500	1106.349609	146.852356
-7261.904415	3824.221500	1105.209961	174.164688
-7261.904415	3824.221500	1104.069336	193.080887
-7261.904415	3824.221500	1102.928711	25.906763
-7261.904415	3824.221500	1101.787109	113.334343
-7261.904415	3824.221500	1100.646484	286.686340
-7261.904415	3824.221500	1099.504883	237.568619
-7261.904415	3824.221500	1098.363281	331.336853
-7261.904415	3824.221500	1097.221680	216.169662
-7261.904415	3824.221500	1096.079102	222.699478
-7261.904415	3824.221500	1094.936523	264.340668
-7261.904415	3824.221500	1093.793945	229.720108
-7261.904415	3824.221500	1092.651367	314.920807
-7261.904415	3824.221500	1091.507813	354.139526
-7261.904415	3824.221500	1090.364258	318.020233
-7261.904415	3824.221500	1089.220703	284.001373
-7261.904415	3824.221500	1088.077148	314.680573
-7261.904415	3824.221500	1086.933594	270.674042
-7261.904415	3824.221500	1085.789063	196.581818
-7261.904415	3824.221500	1084.644531	37.665119
-7261.904415	3824.221500	1083.499023	163.710464
-7261.904415	3824.221500	1082.354492	102.534508
-7261.904415	3824.221500	1081.208984	216.380127
-7261.904415	3824.221500	1080.063477	159.361252
-7261.904415	3824.221500	1078.917969	199.943695
-7261.904415	3824.221500	1077.771484	182.617981
-7261.904415	3824.221500	1076.625977	301.877777
-7261.904415	3824.221500	1075.479492	148.412018
-7261.904415	3824.221500	1074.332031	302.361298
-7261.904415	3824.221500	1073.185547	115.577858
-7261.904415	3824.221500	1072.038086	241.972198
-7261.904415	3824.221500	1070.890625	210.154541
-7261.904415	3824.221500	1069.743164	165.344666
-7261.904415	3824.221500	1068.594727	147.304398
-7261.904415	3824.221500	1067.447266	132.544403
-7261.904415	3824.221500	1066.298828	182.176178
-7261.904415	3824.221500	1065.149414	82.550285
-7261.904415	3824.221500	1064.000977	142.478317
-7261.904415	3824.221500	1062.851563	297.137085
-7261.904415	3824.221500	1061.702148	160.987579
-7261.904415	3824.221500	1060.552734	195.353134
-7261.904415	3824.221500	1059.402344	147.552094
-7261.904415	3824.221500	1058.252930	257.001709
-7261.904415	3824.221500	1057.102539	274.782928
-7261.904415	3824.221500	1055.951172	146.290253
-7261.904415	3824.221500	1054.800781	273.626678
-7261.904415	3824.221500	1053.649414	302.351532
-7261.904415	3824.221500	1052.498047	122.483597
-7261.904415	3824.221500	1051.346680	68.027893
-7261.904415	3824.221500	1050.194336	-158.811661
-7261.904415	3824.221500	1049.042969	166.152145
-7261.904415	3824.221500	1047.890625	142.252808
-7261.904415	3824.221500	1046.738281	167.592285
-7261.904415	3824.221500	1045.584961	161.660568
-7261.904415	3824.221500	1044.431641	123.588013
-7261.904415	3824.221500	1043.278320	238.704819
-7261.904415	3824.221500	1042.125000	287.106842
-7261.904415	3824.221500	1040.971680	258.070557
-7261.904415	3824.221500	1039.817383	107.453064
-7261.904415	3824.221500	1038.663086	115.199287
-7261.904415	3824.221500	1037.508789	202.077927
-7261.904415	3824.221500	1036.353516	-16.384066
-7261.904415	3824.221500	1035.198242	188.934082
-7261.904415	3824.221500	1034.042969	251.780563
-7261.904415	3824.221500	1032.887695	94.816681
-7261.904415	3824.221500	1031.732422	173.993759
-7261.904415	3824.221500	1030.576172	226.029114
-7261.904415	3824.221500	1029.419922	110.969406
-7261.904415	3824.221500	1028.263672	295.304047
-7261.904415	3824.221500	1027.106445	57.011059
-7261.904415	3824.221500	1025.949219	300.333435
-7261.904415	3824.221500	1024.792969	239.766251
-7261.904415	3824.221500	1023.634766	50.854340
-7261.904415	3824.221500	1022.477539	48.374512
-7261.904415	3824.221500	1021.319336	-122.802498
-7261.904415	3824.221500	1020.161133	1.646514
-7261.904415	3824.221500	1019.002930	61.568420
-7261.904415	3824.221500	1017.843750	-199.320633
-7261.904415	3824.221500	1016.684570	-163.751099
-7261.904415	3824.221500	1015.525391	-38.552834
-7261.904415	3824.221500	1014.366211	44.252857
-7261.904415	3824.221500	1013.207031	15.202315
-7261.904415	3824.221500	1012.046875	205.917862
-7261.904415	3824.221500	1010.886719	55.689663
-7261.904415	3824.221500	1009.726563	148.953476
-7261.904415	3824.221500	1008.565430	95.188011
-7261.904415	3824.221500	1007.404297	62.568264
-7261.904415	3824.221500	1006.243164	222.954803
-7261.904415	3824.221500	1005.082031	11.074395
-7261.904415	3824.221500	1003.920898	123.332542
-7261.904415	3824.221500	1002.758789	8.236213
-7261.904415	3824.221500	1001.596680	242.343292
-7261.904415	3824.221500	1000.433594	47.851166
-7261.904415	3824.221500	999.271484	74.850098
-7261.904415	3824.221500	998.108398	-35.427494
-7261.904415	3824.221500	996.945313	62.650558
-7261.904415	3824.221500	995.782227	-60.830551
-7261.904415	3824.221500	994.618164	176.785461
-7261.904415	3824.221500	993.454102	105.981422
-7261.904415	3824.221500	992.290039	1.136454
-7261.904415	3824.221500	991.125977	142.515442
-7261.904415	3824.221500	989.960938	132.925018
-7261.904415	3824.221500	988.796875	208.548508
-7261.904415	3824.221500	987.630859	112.153946
-7261.904415	3824.221500	986.465820	474.262817
-7261.904415	3824.221500	985.300781	259.206177
-7261.904415	3824.221500	984.134766	-75.080498
-7261.904415	3824.221500	982.968750	372.397461
-7261.904415	3824.221500	981.801758	98.105751
-7261.904415	3824.221500	980.635742	144.561890
-7261.904415	3824.221500	979.468750	8.926578
-7261.904415	3824.221500	978.301758	50.270695
-7261.904415	3824.221500	977.133789	263.909546
-7261.904415	3824.221500	975.966797	-112.422523
-7261.904415	3824.221500	974.798828	147.925369
-7261.904415	3824.221500	973.630859	-28.735611
-7261.904415	3824.221500	972.461914	1.358996
-7261.904415	3824.221500	971.293945	70.587212
-7261.904415	3824.221500	970.125000	179.771683
-7261.904415	3824.221500	968.956055	57.236298
-7261.904415	3824.221500	967.786133	74.740623
-7261.904415	3824.221500	966.617188	64.167641
-7261.904415	3824.221500	965.447266	133.609436
-7261.904415	3824.221500	964.276367	-125.131035
-7261.904415	3824.221500	963.106445	-29.681484
-7261.904415	3824.221500	961.935547	-50.126625
-7261.904415	3824.221500	960.764648	31.755947
-7261.904415	3824.221500	959.593750	-29.622396
-7261.904415	3824.221500	958.422852	83.484680
-7261.904415	3824.221500	957.250977	-149.112579
-7261.904415	3824.221500	956.079102	56.078789
-7261.904415	3824.221500	954.907227	102.147873
-7261.904415	3824.221500	953.734375	77.032837
-7261.904415	3824.221500	952.562500	-43.946617
-7261.904415	3824.221500	951.389648	-27.542351
-7261.904415	3824.221500	950.215820	60.777100
-7261.904415	3824.221500	949.042969	33.039482
-7261.904415	3824.221500	947.869141	35.067112
-7261.904415	3824.221500	946.695313	-150.240768
-7261.904415	3824.221500	945.521484	-76.926888
-7261.904415	3824.221500	944.346680	23.331606
-7261.904415	3824.221500	943.172852	71.764664
-7261.904415	3824.221500	941.998047	2.560761
-7261.904415	3824.221500	940.822266	68.162476
-7261.904415	3824.221500	939.647461	50.497055
-7261.904415	3824.221500	938.471680	116.281242
-7261.904415	3824.221500	937.295898	-17.429424
-7261.904415	3824.221500	936.119141	60.754276
-7261.904415	3824.221500	934.943359	-121.993317
-7261.904415	3824.221500	933.766602	-92.937920
-7261.904415	3824.221500	932.589844	-128.096252
-7261.904415	3824.221500	931.413086	112.267242
-7261.904415	3824.221500	930.235352	5.807388
-7261.904415	3824.221500	929.057617	-103.122414
-7261.904415	3824.221500	927.879883	149.499512
-7261.904415	3824.221500	926.702148	82.359917
-7261.904415	3824.221500	925.523438	-154.360046
-7261.904415	3824.221500	924.344727	2.249659
-7261.904415	3824.221500	923.166016	62.969513
-7261.904415	3824.221500	921.987305	165.417862
-7261.904415	3824.221500	920.807617	76.227051
-7261.904415	3824.221500	919.627930	77.764130
-7261.904415	3824.221500	919.497070	87.928627
-7261.904415	3824.221500	918.331055	-79.817398
-7261.904415	3824.221500	917.165039	-14.270630
-7261.904415	3824.221500	915.999023	-91.115471
-7261.904415	3824.221500	914.833008	146.183411
-7261.904415	3824.221500	913.666016	-122.039558
-7261.904415	3824.221500	912.499023	46.481140
-7261.904415	3824.221500	911.332031	165.882370
-7261.904415	3824.221500	910.165039	-168.390381
-7261.904415	3824.221500	908.997070	169.190674
-7261.904415	3824.221500	907.830078	-35.044819
-7261.904415	3824.221500	906.661133	-94.615379
-7261.904415	3824.221500	905.493164	-14.510972
-7261.904415	3824.221500	904.325195	4.320595
-7261.904415	3824.221500	903.156250	219.068222
-7261.904415	3824.221500	901.987305	235.397766
-7261.904415	3824.221500	900.818359	-61.628113
-7261.904415	3824.221500	899.648438	-84.408432
-7261.904415	3824.221500	898.478516	144.865265
-7261.904415	3824.221500	897.308594	-56.544224
-7261.904415	3824.221500	896.138672	-69.526405
-7261.904415	3824.221500	894.968750	71.565315
-7261.904415	3824.221500	893.797852	-73.467873
-7261.904415	3824.221500	892.626953	-59.547050
-7261.904415	3824.221500	891.456055	-33.409405
-7261.904415	3824.221500	890.284180	183.314590
-7261.904415	3824.221500	889.113281	1.733845
-7261.904415	3824.221500	887.941406	13.191800
-7261.904415	3824.221500	886.768555	71.044998
-7261.904415	3824.221500	885.596680	94.693344
-7261.904415	3824.221500	884.423828	57.308407
-7261.904415	3824.221500	883.250977	5.297198
-7261.904415	3824.221500	882.078125	-68.651718
-7261.904415	3824.221500	880.905273	291.670715
-7261.904415	3824.221500	879.731445	44.525593
-7261.904415	3824.221500	878.557617	-158.623413
-7261.904415	3824.221500	877.383789	-69.120995
-7261.904415	3824.221500	876.209961	-150.282516
-7261.904415	3824.221500	875.035156	9.861155
-7261.904415	3824.221500	873.860352	-129.755692
-7261.904415	3824.221500	872.685547	13.270340
-7261.904415	3824.221500	871.510742	46.639469
-7261.904415	3824.221500	870.334961	9.380371
-7261.904415	3824.221500	869.159180	220.465439
-7261.904415	3824.221500	867.983398	175.888824
-7261.904415	3824.221500	866.807617	60.758968
-7261.904415	3824.221500	865.630859	96.530312
-7261.904415	3824.221500	864.454102	180.940842
-7261.904415	3824.221500	863.277344	53.728844
-7261.904415	3824.221500	862.100586	26.265432
-7261.904415	3824.221500	860.922852	15.834142
-7261.904415	3824.221500	859.745117	-150.147385
-7261.904415	3824.221500	858.567383	50.883350
-7261.904415	3824.221500	857.389648	59.897045
-7261.904415	3824.221500	856.210938	-25.823746
-7261.904415	3824.221500	855.032227	-48.363361
-7261.904415	3824.221500	853.853516	50.511581
-7261.904415	3824.221500	852.674805	8.549101
-7261.904415	3824.221500	851.495117	136.503418
-7261.904415	3824.221500	850.315430	89.692535
-7261.904415	3824.221500	849.135742	25.920105
-7261.904415	3824.221500	847.956055	61.625549
-7261.904415	3824.221500	846.775391	68.219330
-7261.904415	3824.221500	845.595703	-51.269039
-7261.904415	3824.221500	844.415039	-42.227570
-7261.904415	3824.221500	843.233398	-8.950266
-7261.904415	3824.221500	842.052734	70.352135
-7261.904415	3824.221500	840.871094	-5.421277
-7261.904415	3824.221500	839.689453	73.853088
-7261.904415	3824.221500	838.506836	7.801496
-7261.904415	3824.221500	837.325195	101.569626
-7261.904415	3824.221500	836.142578	28.280184
-7261.904415	3824.221500	834.959961	124.429794
-7261.904415	3824.221500	833.777344	-26.258982
-7261.904415	3824.221500	832.593750	432.732697
-7261.904415	3824.221500	831.410156	-131.536118
-7261.904415	3824.221500	830.226563	-146.660202
-7261.904415	3824.221500	829.042969	14.708939
-7261.904415	3824.221500	827.858398	151.842072
-7261.904415	3824.221500	826.673828	25.508245
-7261.904415	3824.221500	825.489258	-95.941109
-7261.904415	3824.221500	824.304688	-132.793228
-7261.904415	3824.221500	823.120117	-0.570700
-7261.904415	3824.221500	821.934570	-158.157074
-7261.904415	3824.221500	820.749023	-11.497210
-7261.904415	3824.221500	819.562500	-4.888716
-7261.904415	3824.221500	818.376953	40.326683
-7261.904415	3824.221500	817.190430	-105.075027
-7261.904415	3824.221500	816.003906	43.864616
-7261.904415	3824.221500	814.817383	86.628845
-7261.904415	3824.221500	813.629883	-3.236232
-7261.904415	3824.221500	812.442383	-35.210648
-7261.904415	3824.221500	811.254883	94.306984
-7261.904415	3824.221500	810.067383	-12.375888
-7261.904415	3824.221500	808.878906	15.897173
-7261.904415	3824.221500	807.690430	44.156864
-7261.904415	3824.221500	806.501953	12.198895
-7261.904415	3824.221500	805.313477	-94.385124
-7261.904415	3824.221500	804.124023	-70.939751
-7261.904415	3824.221500	802.934570	-69.166725
-7261.904415	3824.221500	801.745117	24.037275
-7261.904415	3824.221500	800.555664	146.066574
-7261.904415	3824.221500	799.365234	15.502371
-7261.904415	3824.221500	798.175781	-88.561523
-7261.904415	3824.221500	796.985352	95.914444
-7261.904415	3824.221500	795.793945	-77.833633
-7261.904415	3824.221500	794.603516	-124.148453
-7261.904415	3824.221500	793.412109	139.498764
-7261.904415	3824.221500	792.220703	-48.578098
-7261.904415	3824.221500	791.028320	169.304657
-7261.904415	3824.221500	789.836914	106.151001
-7261.904415	3824.221500	788.644531	141.448685
-7261.904415	3824.221500	787.452148	49.516460
-7261.904415	3824.221500	786.258789	-80.777435
-7261.904415	3824.221500	785.066406	72.079803
-7261.904415	3824.221500	783.873047	-15.001291
-7261.904415	3824.221500	782.679688	140.166214
-7261.904415	3824.221500	781.485352	81.867523
-7261.904415	3824.221500	780.291992	105.091049
-7261.904415	3824.221500	779.097656	-1.123819
-7261.904415	3824.221500	777.903320	-59.378220
-7261.904415	3824.221500	776.708008	66.854233
-7261.904415	3824.221500	775.512695	44.523178
-7261.904415	3824.221500	774.318359	-61.621891
-7261.904415	3824.221500	773.122070	100.421478
-7261.904415	3824.221500	771.926758	42.166904
-7261.904415	3824.221500	770.730469	22.219095
-7261.904415	3824.221500	769.534180	-105.401955
-7261.904415	3824.221500	768.337891	85.185318
-7261.904415	3824.221500	767.141602	-49.590641
-7261.904415	3824.221500	765.944336	97.845284
-7261.904415	3824.221500	764.747070	58.732841
-7261.904415	3824.221500	763.549805	100.893044
-7261.904415	3824.221500	762.351563	21.149029
-7261.904415	3824.221500	761.154297	-51.406090
-7261.904415	3824.221500	759.956055	24.160376
-7261.904415	3824.221500	758.757813	25.647770
-7261.904415	3824.221500	757.558594	19.960251
-7261.904415	3824.221500	756.359375	217.178436
-7261.904415	3824.221500	755.160156	18.100876
-7261.904415	3824.221500	753.960938	-73.525642
-7261.904415	3824.221500	752.761719	209.437271
-7261.904415	3824.221500	751.561523	96.315605
-7261.904415	3824.221500	750.361328	-257.634216
-7261.904415	3824.221500	749.160156	230.197006
-7261.904415	3824.221500	747.959961	-159.418716
-7261.904415	3824.221500	746.758789	-15.031342
-7261.904415	3824.221500	745.557617	-137.591415
-7261.904415	3824.221500	744.356445	-57.621658
-7261.904415	3824.221500	743.154297	-118.225876
-7261.904415	3824.221500	741.952148	71.214775
-7261.904415	3824.221500	740.750000	117.712715
-7261.904415	3824.221500	739.547852	-4.826077
-7261.904415	3824.221500	738.344727	-36.898022
-7261.904415	3824.221500	737.142578	314.092407
-7261.904415	3824.221500	735.939453	212.948532
-7261.904415	3824.221500	734.735352	76.154419
-7261.904415	3824.221500	733.532227	-70.112289
-7261.904415	3824.221500	732.328125	83.205559
-7261.904415	3824.221500	731.124023	169.891006
-7261.904415	3824.221500	729.918945	-16.755590
-7261.904415	3824.221500	728.714844	67.500183
-7261.904415	3824.221500	727.509766	-69.202599
-7261.904415	3824.221500	726.303711	159.854523
-7261.904415	3824.221500	725.098633	-24.336147
-7261.904415	3824.221500	723.892578	-99.274284
-7261.904415	3824.221500	722.686523	-19.934534
-7261.904415	3824.221500	721.480469	73.589104
-7261.904415	3824.221500	720.274414	178.913589
-7261.904415	3824.221500	719.067383	99.170212
-7261.904415	3824.221500	717.860352	21.809214
-7261.904415	3824.221500	716.653320	98.564743
-7261.904415	3824.221500	715.445313	-61.767868
-7261.904415	3824.221500	714.238281	131.051086
-7261.904415	3824.221500	713.030273	-26.896296
-7261.904415	3824.221500	711.821289	18.921938
-7261.904415	3824.221500	710.613281	69.434105
-7261.904415	3824.221500	709.404297	46.498554
-7261.904415	3824.221500	708.195313	30.652605
-7261.904415	3824.221500	706.986328	-108.289482
-7261.904415	3824.221500	705.776367	20.205799
-7261.904415	3824.221500	704.566406	32.694378
-7261.904415	3824.221500	703.356445	106.653625
-7261.904415	3824.221500	702.146484	55.219112
-7261.904415	3824.221500	700.935547	62.891079
-7261.904415	3824.221500	699.724609	103.629860
-7261.904415	3824.221500	698.513672	-70.742432
-7261.904415	3824.221500	697.302734	-13.501336
-7261.904415	3824.221500	696.090820	-109.866386
-7261.904415	3824.221500	694.878906	-128.273651
-7261.904415	3824.221500	693.666992	46.938881
-7261.904415	3824.221500	692.455078	174.832596
-7261.904415	3824.221500	691.242188	64.244530
-7261.904415	3824.221500	690.029297	12.676254
-7261.904415	3824.221500	688.816406	-107.320580
-7261.904415	3824.221500	687.602539	20.394747
-7261.904415	3824.221500	686.389648	284.820770
-7261.904415	3824.221500	685.175781	122.321060
-7261.904415	3824.221500	683.960938	226.254837
-7261.904415	3824.221500	682.747070	249.982132
-7261.904415	3824.221500	681.532227	56.879089
-7261.904415	3824.221500	680.317383	226.647675
-7261.904415	3824.221500	679.102539	250.280045
-7261.904415	3824.221500	677.886719	94.898262
-7261.904415	3824.221500	676.670898	102.013947
-7261.904415	3824.221500	675.455078	-55.679562
-7261.904415	3824.221500	674.239258	57.317738
-7261.904415	3824.221500	673.022461	167.886642
-7261.904415	3824.221500	671.805664	160.758621
-7261.904415	3824.221500	670.588867	212.405380
-7261.904415	3824.221500	669.372070	158.187286
-7261.904415	3824.221500	668.154297	202.705795
-7261.904415	3824.221500	666.936523	49.737434
-7261.904415	3824.221500	665.718750	216.407242
-7261.904415	3824.221500	664.500977	70.494591
-7261.904415	3824.221500	663.282227	213.546204
-7261.904415	3824.221500	662.063477	264.917786
-7261.904415	3824.221500	660.844727	304.502045
-7261.904415	3824.221500	659.625000	83.465790
-7261.904415	3824.221500	658.405273	76.076935
-7261.904415	3824.221500	657.185547	164.872711
-7261.904415	3824.221500	655.965820	180.878647
-7261.904415	3824.221500	654.745117	192.158981
-7261.904415	3824.221500	653.525391	365.217499
-7261.904415	3824.221500	652.303711	27.063931
-7261.904415	3824.221500	651.083008	132.054123
-7261.904415	3824.221500	649.861328	35.428631
-7261.904415	3824.221500	648.640625	145.008835
-7261.904415	3824.221500	647.417969	142.072830
-7261.904415	3824.221500	646.196289	141.455246
-7261.904415	3824.221500	644.973633	157.204132
-7261.904415	3824.221500	643.750977	107.371986
-7261.904415	3824.221500	642.528320	-47.790955
-7261.904415	3824.221500	641.305664	70.879623
-7261.904415	3824.221500	640.082031	226.908798
-7261.904415	3824.221500	638.858398	38.999538
-7261.904415	3824.221500	637.634766	159.843552
-7261.904415	3824.221500	636.410156	39.787163
-7261.904415	3824.221500	635.185547	-124.656006
-7261.904415	3824.221500	633.960938	73.201874
-7261.904415	3824.221500	632.736328	107.390427
-7261.904415	3824.221500	631.510742	-82.727448
-7261.904415	3824.221500	630.285156	131.278992
-7261.904415	3824.221500	629.059570	11.248975
-7261.904415	3824.221500	627.833984	-41.046619
-7261.904415	3824.221500	626.607422	102.727753
-7261.904415	3824.221500	625.380859	52.727535
-7261.904415	3824.221500	624.154297	-4.270492
-7261.904415	3824.221500	622.927734	295.635468
-7261.904415	3824.221500	621.700195	-118.252296
-7261.904415	3824.221500	620.472656	22.958124
-7261.904415	3824.221500	619.245117	-36.391033
-7261.904415	3824.221500	618.016602	2.154896
-7261.904415	3824.221500	616.788086	-271.578552
-7261.904415	3824.221500	615.559570	-83.931709
-7261.904415	3824.221500	614.331055	75.670128
-7261.904415	3824.221500	613.101563	27.930639
-7261.904415	3824.221500	611.872070	31.418623
-7261.904415	3824.221500	610.642578	25.578934
-7261.904415	3824.221500	609.413086	-131.542969
-7261.904415	3824.221500	608.182617	144.161850
-7261.904415	3824.221500	606.952148	-219.980881
-7261.904415	3824.221500	605.721680	-104.877846
-7261.904415	3824.221500	604.491211	7.840681
-7261.904415	3824.221500	603.259766	8.909620
-7261.904415	3824.221500	602.028320	-8.627470
-7261.904415	3824.221500	600.796875	41.223167
-7261.904415	3824.221500	599.564453	86.395691
-7261.904415	3824.221500	598.332031	78.115341
-7261.904415	3824.221500	597.099609	-41.639721
-7261.904415	3824.221500	595.867188	12.783469
-7261.904415	3824.221500	594.633789	-74.424088
-7261.904415	3824.221500	593.400391	0.855488
-7261.904415	3824.221500	592.166992	94.659950
-7261.904415	3824.221500	590.933594	-87.638962
-7261.904415	3824.221500	589.699219	-56.488895
-7261.904415	3824.221500	588.464844	-127.383270
-7261.904415	3824.221500	587.230469	-52.196407
-7261.904415	3824.221500	585.995117	-53.533188
-7261.904415	3824.221500	584.760742	3.062296
-7261.904415	3824.221500	583.525391	73.533943
-7261.904415	3824.221500	582.289063	-13.539447
-7261.904415	3824.221500	581.053711	225.963089
-7261.904415	3824.221500	579.817383	-67.171761
-7261.904415	3824.221500	578.581055	17.144648
-7261.904415	3824.221500	577.343750	-25.864386
-7261.904415	3824.221500	576.107422	-27.201941
-7261.904415	3824.221500	574.870117	31.613031
-7261.904415	3824.221500	573.631836	224.553894
-7261.904415	3824.221500	572.394531	-75.123642
-7261.904415	3824.221500	571.156250	-27.881884
-7261.904415	3824.221500	569.917969	104.868797
-7261.904415	3824.221500	568.679688	-37.429489
-7261.904415	3824.221500	567.440430	35.209282
-7261.904415	3824.221500	566.202148	-9.979775
-7261.904415	3824.221500	564.961914	64.949318
-7261.904415	3824.221500	563.722656	-17.151165
-7261.904415	3824.221500	562.482422	36.991936
-7261.904415	3824.221500	561.243164	-10.426397
-7261.904415	3824.221500	560.001953	216.775269
-7261.904415	3824.221500	558.761719	130.144363
-7261.904415	3824.221500	557.520508	142.741241
-7261.904415	3824.221500	556.279297	180.713959
-7261.904415	3824.221500	555.038086	-101.780594
-7261.904415	3824.221500	553.795898	12.322775
-7261.904415	3824.221500	552.554688	-2.659094
-7261.904415	3824.221500	551.311523	74.541359
-7261.904415	3824.221500	550.069336	101.049385
-7261.904415	3824.221500	548.826172	111.442017
-7261.904415	3824.221500	547.583984	73.495895
-7261.904415	3824.221500	546.339844	125.363472
-7261.904415	3824.221500	545.096680	34.532066
-7261.904415	3824.221500	543.852539	70.319016
-7261.904415	3824.221500	542.608398	-57.230450
-7261.904415	3824.221500	541.364258	270.712280
-7261.904415	3824.221500	540.119141	-116.636192
-7261.904415	3824.221500	538.875000	87.071671
-7261.904415	3824.221500	537.628906	166.589157
-7261.904415	3824.221500	536.383789	105.910873
-7261.904415	3824.221500	535.137695	6.222451
-7261.904415	3824.221500	533.892578	175.364365
-7261.904415	3824.221500	532.645508	-68.936348
-7261.904415	3824.221500	531.399414	86.421059
-7261.904415	3824.221500	530.152344	46.605629
-7261.904415	3824.221500	528.905273	13.718784
-7261.904415	3824.221500	527.658203	-58.138687
-7261.904415	3824.221500	526.410156	-88.645790
-7261.904415	3824.221500	525.163086	181.358749
-7261.904415	3824.221500	523.914063	-16.537460
-7261.904415	3824.221500	522.666016	214.411163
-7261.904415	3824.221500	521.416992	12.061218
-7261.904415	3824.221500	520.167969	215.455139
-7261.904415	3824.221500	518.918945	8.661218
-7261.904415	3824.221500	517.669922	-140.751282
-7261.904415	3824.221500	516.419922	-28.986921
-7261.904415	3824.221500	515.169922	-111.872673
-7261.904415	3824.221500	513.919922	144.110764
-7261.904415	3824.221500	512.668945	150.535126
-7261.904415	3824.221500	511.417969	-35.232452
-7261.904415	3824.221500	510.166992	-127.096642
-7261.904415	3824.221500	508.916016	80.735085
-7261.904415	3824.221500	507.664063	-59.089504
-7261.904415	3824.221500	506.412109	265.286652
-7261.904415	3824.221500	505.160156	205.529968
-7261.904415	3824.221500	503.907227	-2.723677
-7261.904415	3824.221500	502.655273	344.344574
-7261.904415	3824.221500	501.402344	111.063789
-7261.904415	3824.221500	500.148438	60.609871
-7261.904415	3824.221500	498.895508	94.680275
-7261.904415	3824.221500	497.641602	416.392975
-7261.904415	3824.221500	496.387695	308.899323
-7261.904415	3824.221500	495.132813	299.587769
-7261.904415	3824.221500	493.878906	292.575226
-7261.904415	3824.221500	492.624023	274.174805
-7261.904415	3824.221500	491.368164	173.697632
-7261.904415	3824.221500	490.113281	278.466370
-7261.904415	3824.221500	488.857422	278.344696
-7261.904415	3824.221500	487.601563	353.434448
-7261.904415	3824.221500	486.344727	186.981873
-7261.904415	3824.221500	485.088867	307.625671
-7261.904415	3824.221500	483.832031	398.610992
-7261.904415	3824.221500	482.575195	289.182800
-7261.904415	3824.221500	481.317383	484.845764
-7261.904415	3824.221500	480.059570	409.577026
-7261.904415	3824.221500	478.801758	404.872253
-7261.904415	3824.221500	477.543945	322.808929
-7261.904415	3824.221500	476.285156	495.513397
-7261.904415	3824.221500	475.027344	197.404724
-7261.904415	3824.221500	473.767578	520.078613
-7261.904415	3824.221500	472.508789	672.114136
-7261.904415	3824.221500	471.249023	542.262939
-7261.904415	3824.221500	469.989258	342.005219
-7261.904415	3824.221500	468.729492	661.990845
-7261.904415	3824.221500	467.469727	488.978973
-7261.904415	3824.221500	466.208984	568.037048
-7261.904415	3824.221500	464.948242	485.841949
-7261.904415	3824.221500	463.686523	698.683472
-7261.904415	3824.221500	462.425781	650.433899
-7261.904415	3824.221500	461.164063	733.728943
-7261.904415	3824.221500	459.901367	662.694946
-7261.904415	3824.221500	458.639648	650.585754
-7261.904415	3824.221500	457.376953	729.096985
-7261.904415	3824.221500	456.114258	791.634216
-7261.904415	3824.221500	454.851563	715.827026
-7261.904415	3824.221500	453.587891	852.940918
-7261.904415	3824.221500	452.324219	688.634033
-7261.904415	3824.221500	451.060547	680.565735
-7261.904415	3824.221500	449.796875	690.512268
-7261.904415	3824.221500	448.532227	727.509644
-7261.904415	3824.221500	447.267578	852.642212
-7261.904415	3824.221500	446.002930	540.888794
-7261.904415	3824.221500	444.737305	796.967041
-7261.904415	3824.221500	443.471680	817.574219
-7261.904415	3824.221500	442.206055	844.814514
-7261.904415	3824.221500	440.940430	1007.538940
-7261.904415	3824.221500	439.673828	871.674744
-7261.904415	3824.221500	438.407227	719.883606
-7261.904415	3824.221500	437.140625	708.062622
-7261.904415	3824.221500	435.873047	691.543152
-7261.904415	3824.221500	434.605469	819.374268
-7261.904415	3824.221500	433.337891	775.352661
-7261.904415	3824.221500	432.070313	875.612000
-7261.904415	3824.221500	430.801758	919.183960
-7261.904415	3824.221500	429.533203	829.380798
-7261.904415	3824.221500	428.264648	892.779541
-7261.904415	3824.221500	426.996094	757.424683
-7261.904415	3824.221500	425.726563	716.571838
-7261.904415	3824.221500	424.457031	729.571655
-7261.904415	3824.221500	423.186523	906.818420
-7261.904415	3824.221500	421.916992	984.545715
-7261.904415	3824.221500	420.646484	1037.146851
-7261.904415	3824.221500	419.375977	1190.768066
-7261.904415	3824.221500	418.104492	1112.032715
-7261.904415	3824.221500	416.833008	1129.801758
-7261.904415	3824.221500	415.561523	1153.958740
-7261.904415	3824.221500	414.290039	1076.461914
-7261.904415	3824.221500	413.017578	1131.359985
-7261.904415	3824.221500	411.746094	922.643982
-7261.904415	3824.221500	410.472656	857.532166
-7261.904415	3824.221500	409.200195	1093.335693
-7261.904415	3824.221500	407.926758	1065.559692
-7261.904415	3824.221500	406.653320	996.877197
-7261.904415	3824.221500	405.379883	1078.305298
-7261.904415	3824.221500	404.105469	990.700195
-7261.904415	3824.221500	402.831055	1100.282349
-7261.904415	3824.221500	401.556641	1141.919189
-7261.904415	3824.221500	400.282227	1147.068970
-7261.904415	3824.221500	399.006836	1248.163452
-7261.904415	3824.221500	397.731445	1077.083984
-7261.904415	3824.221500	396.456055	1120.871460
-7261.904415	3824.221500	395.179688	1123.627686
-7261.904415	3824.221500	393.903320	984.447937
-7261.904415	3824.221500	392.626953	1057.677246
-7261.904415	3824.221500	391.350586	1257.969482
-7261.904415	3824.221500	390.073242	1060.750977
-7261.904415	3824.221500	388.795898	896.499756
-7261.904415	3824.221500	387.518555	1278.198364
-7261.904415	3824.221500	386.240234	1125.867432
-7261.904415	3824.221500	384.961914	1127.316040
-7261.904415	3824.221500	383.683594	901.817261
-7261.904415	3824.221500	382.405273	1172.479614
-7261.904415	3824.221500	381.125977	1175.827637
-7261.904415	3824.221500	379.846680	1231.969604
-7261.904415	3824.221500	378.567383	1128.340454
-7261.904415	3824.221500	377.287109	1026.017456
-7261.904415	3824.221500	376.006836	1056.910034
-7261.904415	3824.221500	374.726563	1051.008789
-7261.904415	3824.221500	373.446289	997.136902
-7261.904415	3824.221500	372.165039	1015.930603
-7261.904415	3824.221500	370.883789	1114.036133
-7261.904415	3824.221500	369.602539	1076.957153
-7261.904415	3824.221500	368.320313	699.289307
-7261.904415	3824.221500	367.039063	847.485229
-7261.904415	3824.221500	365.755859	969.778259
-7261.904415	3824.221500	364.473633	936.804199
-7261.904415	3824.221500	363.190430	802.119568
-7261.904415	3824.221500	361.907227	806.681458
-7261.904415	3824.221500	360.624023	1048.486816
-7261.904415	3824.221500	359.340820	802.728271
-7261.904415	3824.221500	358.056641	1037.082520
-7261.904415	3824.221500	356.772461	862.012573
-7261.904415	3824.221500	355.487305	955.061218
-7261.904415	3824.221500	354.202148	832.648071
-7261.904415	3824.221500	352.916992	820.039001
-7261.904415	3824.221500	351.631836	834.733459
-7261.904415	3824.221500	350.346680	709.707581
-7261.904415	3824.221500	349.060547	872.300720
-7261.904415	3824.221500	347.774414	712.610962
-7261.904415	3824.221500	346.487305	562.244629
-7261.904415	3824.221500	345.200195	645.840759
-7261.904415	3824.221500	343.913086	794.193420
-7261.904415	3824.221500	342.625977	593.681763
-7261.904415	3824.221500	341.338867	460.148773
-7261.904415	3824.221500	340.050781	773.462280
-7261.904415	3824.221500	338.762695	746.802917
-7261.904415	3824.221500	337.473633	655.731506
-7261.904415	3824.221500	336.184570	546.928711
-7261.904415	3824.221500	334.895508	489.182922
-7261.904415	3824.221500	333.606445	549.002319
-7261.904415	3824.221500	332.317383	428.854828
-7261.904415	3824.221500	331.027344	246.339249
-7261.904415	3824.221500	329.736328	425.151276
-7261.904415	3824.221500	328.446289	335.232513
-7261.904415	3824.221500	327.155273	280.353119
-7261.904415	3824.221500	325.864258	198.420151
-7261.904415	3824.221500	324.573242	111.555214
-7261.904415	3824.221500	323.281250	112.690941
-7261.904415	3824.221500	321.989258	33.399910
-7261.904415	3824.221500	320.697266	19.858862
-7261.904415	3824.221500	319.405273	-47.628681
-7261.904415	3824.221500	318.112305	-118.257103
-7261.904415	3824.221500	316.819336	40.413242
-7261.904415	3824.221500	315.526367	93.981964
-7261.904415	3824.221500	314.232422	-101.469276
-7261.904415	3824.221500	312.938477	-14.849259
-7261.904415	3824.221500	311.644531	-53.363052
-7261.904415	3824.221500	310.349609	-55.690708
-7261.904415	3824.221500	309.054688	-17.417269
-7261.904415	3824.221500	307.759766	-46.949127
-7261.904415	3824.221500	306.464844	-219.452805
-7261.904415	3824.221500	305.168945	-11.440453
-7261.904415	3824.221500	303.873047	93.143776
-7261.904415	3824.221500	302.577148	50.116360
-7261.904415	3824.221500	301.281250	276.759155
-7261.904415	3824.221500	299.984375	141.394547
