#X		#Y		#Wave		#Intensity
-7397.694415	4237.185333	1999.946289	67.348007
-7397.694415	4237.185333	1998.981445	215.312149
-7397.694415	4237.185333	1998.017578	108.637253
-7397.694415	4237.185333	1997.052734	-12.633140
-7397.694415	4237.185333	1996.088867	220.688660
-7397.694415	4237.185333	1995.124023	134.588760
-7397.694415	4237.185333	1994.159180	-57.753910
-7397.694415	4237.185333	1993.193359	168.676804
-7397.694415	4237.185333	1992.228516	-0.885110
-7397.694415	4237.185333	1991.262695	42.699989
-7397.694415	4237.185333	1990.296875	-7.574130
-7397.694415	4237.185333	1989.331055	48.770840
-7397.694415	4237.185333	1988.365234	-90.154884
-7397.694415	4237.185333	1987.398438	285.647003
-7397.694415	4237.185333	1986.432617	-60.633453
-7397.694415	4237.185333	1985.465820	11.258536
-7397.694415	4237.185333	1984.499023	93.189049
-7397.694415	4237.185333	1983.532227	123.353653
-7397.694415	4237.185333	1982.565430	-6.955338
-7397.694415	4237.185333	1981.597656	38.366383
-7397.694415	4237.185333	1980.629883	24.541872
-7397.694415	4237.185333	1979.662109	40.515026
-7397.694415	4237.185333	1978.694336	-24.858080
-7397.694415	4237.185333	1977.726563	144.486710
-7397.694415	4237.185333	1976.758789	96.684898
-7397.694415	4237.185333	1975.790039	-133.598312
-7397.694415	4237.185333	1974.821289	-94.698982
-7397.694415	4237.185333	1973.852539	-26.078104
-7397.694415	4237.185333	1972.883789	-11.624302
-7397.694415	4237.185333	1971.915039	64.601974
-7397.694415	4237.185333	1970.945313	-14.424540
-7397.694415	4237.185333	1969.975586	-206.709198
-7397.694415	4237.185333	1969.005859	-70.991974
-7397.694415	4237.185333	1968.036133	-36.254932
-7397.694415	4237.185333	1967.066406	210.469131
-7397.694415	4237.185333	1966.096680	-92.143539
-7397.694415	4237.185333	1965.125977	19.231434
-7397.694415	4237.185333	1964.155273	-24.478043
-7397.694415	4237.185333	1963.184570	-63.156101
-7397.694415	4237.185333	1962.213867	58.273148
-7397.694415	4237.185333	1961.242188	108.367088
-7397.694415	4237.185333	1960.271484	-48.171223
-7397.694415	4237.185333	1959.299805	267.790955
-7397.694415	4237.185333	1958.328125	40.101261
-7397.694415	4237.185333	1957.356445	137.200073
-7397.694415	4237.185333	1956.384766	106.472206
-7397.694415	4237.185333	1955.412109	-59.390388
-7397.694415	4237.185333	1954.439453	104.239067
-7397.694415	4237.185333	1953.467773	-54.059734
-7397.694415	4237.185333	1952.495117	28.548523
-7397.694415	4237.185333	1951.521484	221.727386
-7397.694415	4237.185333	1950.548828	-34.579792
-7397.694415	4237.185333	1949.575195	-20.617287
-7397.694415	4237.185333	1948.601563	108.783585
-7397.694415	4237.185333	1947.627930	171.905518
-7397.694415	4237.185333	1946.654297	-30.013660
-7397.694415	4237.185333	1945.680664	116.628189
-7397.694415	4237.185333	1944.706055	54.718433
-7397.694415	4237.185333	1943.732422	-4.676887
-7397.694415	4237.185333	1942.757813	41.440125
-7397.694415	4237.185333	1941.783203	-5.601714
-7397.694415	4237.185333	1940.807617	-123.691086
-7397.694415	4237.185333	1939.833008	-6.400747
-7397.694415	4237.185333	1938.857422	0.593804
-7397.694415	4237.185333	1937.881836	152.172195
-7397.694415	4237.185333	1936.906250	-186.228119
-7397.694415	4237.185333	1935.930664	31.503223
-7397.694415	4237.185333	1934.955078	-108.353455
-7397.694415	4237.185333	1933.978516	241.530396
-7397.694415	4237.185333	1933.001953	-40.258495
-7397.694415	4237.185333	1932.025391	140.638412
-7397.694415	4237.185333	1931.048828	96.358040
-7397.694415	4237.185333	1930.072266	101.034401
-7397.694415	4237.185333	1929.094727	-55.722454
-7397.694415	4237.185333	1928.118164	100.625046
-7397.694415	4237.185333	1927.140625	19.739193
-7397.694415	4237.185333	1926.163086	34.231270
-7397.694415	4237.185333	1925.184570	2.278869
-7397.694415	4237.185333	1924.207031	107.193085
-7397.694415	4237.185333	1923.228516	-100.681007
-7397.694415	4237.185333	1922.250000	-39.761318
-7397.694415	4237.185333	1921.271484	30.900928
-7397.694415	4237.185333	1920.292969	42.925430
-7397.694415	4237.185333	1919.314453	-3.656950
-7397.694415	4237.185333	1918.334961	381.837433
-7397.694415	4237.185333	1917.355469	105.775017
-7397.694415	4237.185333	1916.375977	0.616435
-7397.694415	4237.185333	1915.396484	93.100677
-7397.694415	4237.185333	1914.416992	192.856415
-7397.694415	4237.185333	1913.436523	43.803703
-7397.694415	4237.185333	1912.457031	-39.372814
-7397.694415	4237.185333	1911.476563	128.566650
-7397.694415	4237.185333	1910.496094	67.308136
-7397.694415	4237.185333	1909.515625	-13.440450
-7397.694415	4237.185333	1908.534180	-81.997284
-7397.694415	4237.185333	1907.552734	-1.949649
-7397.694415	4237.185333	1906.572266	9.851624
-7397.694415	4237.185333	1905.590820	-0.291243
-7397.694415	4237.185333	1904.608398	-66.453491
-7397.694415	4237.185333	1903.626953	132.718048
-7397.694415	4237.185333	1902.644531	-108.725433
-7397.694415	4237.185333	1901.663086	87.895554
-7397.694415	4237.185333	1900.680664	-22.127628
-7397.694415	4237.185333	1899.698242	91.644478
-7397.694415	4237.185333	1898.714844	86.178856
-7397.694415	4237.185333	1897.732422	-84.655258
-7397.694415	4237.185333	1896.749023	131.079865
-7397.694415	4237.185333	1895.765625	-10.595076
-7397.694415	4237.185333	1894.782227	187.971527
-7397.694415	4237.185333	1893.798828	255.228195
-7397.694415	4237.185333	1892.814453	21.199442
-7397.694415	4237.185333	1891.831055	15.531384
-7397.694415	4237.185333	1890.846680	-99.445930
-7397.694415	4237.185333	1889.862305	23.517014
-7397.694415	4237.185333	1888.877930	-67.216133
-7397.694415	4237.185333	1887.892578	106.586128
-7397.694415	4237.185333	1886.908203	37.636723
-7397.694415	4237.185333	1885.922852	182.166824
-7397.694415	4237.185333	1884.937500	125.279739
-7397.694415	4237.185333	1883.952148	58.674152
-7397.694415	4237.185333	1882.965820	45.395920
-7397.694415	4237.185333	1881.980469	-96.401138
-7397.694415	4237.185333	1880.994141	-95.183403
-7397.694415	4237.185333	1880.007813	165.289413
-7397.694415	4237.185333	1879.021484	-3.226292
-7397.694415	4237.185333	1878.035156	-137.807114
-7397.694415	4237.185333	1877.047852	69.116074
-7397.694415	4237.185333	1876.061523	96.728943
-7397.694415	4237.185333	1875.074219	223.550064
-7397.694415	4237.185333	1874.086914	105.797592
-7397.694415	4237.185333	1873.098633	-70.039505
-7397.694415	4237.185333	1872.111328	-134.546677
-7397.694415	4237.185333	1871.123047	16.235786
-7397.694415	4237.185333	1870.135742	104.030251
-7397.694415	4237.185333	1869.147461	-21.068962
-7397.694415	4237.185333	1868.158203	105.290283
-7397.694415	4237.185333	1867.169922	270.237885
-7397.694415	4237.185333	1866.180664	178.874771
-7397.694415	4237.185333	1865.192383	181.746078
-7397.694415	4237.185333	1864.203125	-42.543484
-7397.694415	4237.185333	1863.213867	-121.858147
-7397.694415	4237.185333	1862.223633	-29.717102
-7397.694415	4237.185333	1861.234375	-19.755468
-7397.694415	4237.185333	1860.244141	205.020782
-7397.694415	4237.185333	1859.253906	111.042587
-7397.694415	4237.185333	1858.263672	-98.788857
-7397.694415	4237.185333	1857.273438	62.996033
-7397.694415	4237.185333	1856.282227	159.533127
-7397.694415	4237.185333	1855.291992	-21.391155
-7397.694415	4237.185333	1854.300781	-67.253014
-7397.694415	4237.185333	1853.309570	-146.902435
-7397.694415	4237.185333	1852.317383	48.238705
-7397.694415	4237.185333	1851.326172	154.084167
-7397.694415	4237.185333	1850.333984	98.384979
-7397.694415	4237.185333	1849.342773	283.588318
-7397.694415	4237.185333	1848.350586	-44.410439
-7397.694415	4237.185333	1847.357422	-76.108543
-7397.694415	4237.185333	1846.365234	2.922934
-7397.694415	4237.185333	1845.372070	21.684595
-7397.694415	4237.185333	1844.379883	93.346786
-7397.694415	4237.185333	1843.386719	102.359161
-7397.694415	4237.185333	1842.393555	89.663361
-7397.694415	4237.185333	1841.399414	295.832214
-7397.694415	4237.185333	1840.406250	218.064789
-7397.694415	4237.185333	1839.412109	-13.631988
-7397.694415	4237.185333	1838.417969	31.203289
-7397.694415	4237.185333	1837.423828	131.260117
-7397.694415	4237.185333	1836.429688	-88.422409
-7397.694415	4237.185333	1835.434570	247.003693
-7397.694415	4237.185333	1834.440430	284.348480
-7397.694415	4237.185333	1833.445313	170.298019
-7397.694415	4237.185333	1832.450195	130.689056
-7397.694415	4237.185333	1831.454102	266.324493
-7397.694415	4237.185333	1830.458984	58.565517
-7397.694415	4237.185333	1829.462891	222.866470
-7397.694415	4237.185333	1828.466797	-138.494324
-7397.694415	4237.185333	1827.470703	-75.088997
-7397.694415	4237.185333	1826.474609	108.186081
-7397.694415	4237.185333	1825.478516	73.086884
-7397.694415	4237.185333	1824.481445	210.601578
-7397.694415	4237.185333	1823.484375	7.568347
-7397.694415	4237.185333	1822.487305	44.268589
-7397.694415	4237.185333	1821.490234	143.217102
-7397.694415	4237.185333	1820.493164	31.218727
-7397.694415	4237.185333	1819.495117	134.821976
-7397.694415	4237.185333	1818.498047	-80.225014
-7397.694415	4237.185333	1817.500000	75.948029
-7397.694415	4237.185333	1816.500977	119.476891
-7397.694415	4237.185333	1815.502930	95.915672
-7397.694415	4237.185333	1814.504883	10.086248
-7397.694415	4237.185333	1813.505859	194.643341
-7397.694415	4237.185333	1812.506836	108.727463
-7397.694415	4237.185333	1811.507813	-65.710014
-7397.694415	4237.185333	1810.508789	-15.316350
-7397.694415	4237.185333	1809.508789	82.829620
-7397.694415	4237.185333	1808.508789	-151.419479
-7397.694415	4237.185333	1807.508789	-27.084923
-7397.694415	4237.185333	1806.508789	-7.997529
-7397.694415	4237.185333	1805.508789	-175.333832
-7397.694415	4237.185333	1804.508789	51.518719
-7397.694415	4237.185333	1803.507813	268.681244
-7397.694415	4237.185333	1802.506836	96.467567
-7397.694415	4237.185333	1801.505859	-27.974573
-7397.694415	4237.185333	1800.504883	-2.026778
-7397.694415	4237.185333	1799.502930	202.860641
-7397.694415	4237.185333	1798.501953	73.560722
-7397.694415	4237.185333	1797.500000	-22.339172
-7397.694415	4237.185333	1796.498047	20.101055
-7397.694415	4237.185333	1795.496094	64.865067
-7397.694415	4237.185333	1794.493164	-97.880432
-7397.694415	4237.185333	1793.491211	166.125702
-7397.694415	4237.185333	1792.488281	65.306381
-7397.694415	4237.185333	1791.485352	-64.114868
-7397.694415	4237.185333	1790.482422	4.226501
-7397.694415	4237.185333	1789.478516	5.792897
-7397.694415	4237.185333	1788.475586	-40.312321
-7397.694415	4237.185333	1787.471680	65.952538
-7397.694415	4237.185333	1786.467773	-51.659504
-7397.694415	4237.185333	1785.463867	83.047173
-7397.694415	4237.185333	1784.459961	-91.724007
-7397.694415	4237.185333	1783.455078	47.609283
-7397.694415	4237.185333	1782.450195	-108.145081
-7397.694415	4237.185333	1781.445313	26.301311
-7397.694415	4237.185333	1780.440430	-70.019005
-7397.694415	4237.185333	1779.435547	80.932381
-7397.694415	4237.185333	1778.429688	-124.797539
-7397.694415	4237.185333	1777.424805	49.794868
-7397.694415	4237.185333	1776.418945	-37.115700
-7397.694415	4237.185333	1775.413086	111.175385
-7397.694415	4237.185333	1774.406250	126.344879
-7397.694415	4237.185333	1773.400391	10.854702
-7397.694415	4237.185333	1772.393555	-97.511337
-7397.694415	4237.185333	1771.386719	-72.929321
-7397.694415	4237.185333	1770.379883	122.504425
-7397.694415	4237.185333	1769.373047	-14.409952
-7397.694415	4237.185333	1768.365234	252.038300
-7397.694415	4237.185333	1767.358398	65.260719
-7397.694415	4237.185333	1766.350586	13.703835
-7397.694415	4237.185333	1765.342773	4.813844
-7397.694415	4237.185333	1764.334961	10.117474
-7397.694415	4237.185333	1763.326172	22.489391
-7397.694415	4237.185333	1762.318359	46.677406
-7397.694415	4237.185333	1761.309570	-68.985542
-7397.694415	4237.185333	1760.300781	301.021118
-7397.694415	4237.185333	1759.291016	142.644241
-7397.694415	4237.185333	1758.282227	105.078156
-7397.694415	4237.185333	1757.272461	204.813766
-7397.694415	4237.185333	1756.262695	60.650108
-7397.694415	4237.185333	1755.252930	155.558273
-7397.694415	4237.185333	1754.243164	151.011292
-7397.694415	4237.185333	1753.233398	-85.426018
-7397.694415	4237.185333	1752.222656	-92.359726
-7397.694415	4237.185333	1751.211914	165.559143
-7397.694415	4237.185333	1750.201172	-54.293049
-7397.694415	4237.185333	1749.190430	68.706161
-7397.694415	4237.185333	1748.179688	9.625524
-7397.694415	4237.185333	1747.167969	33.244560
-7397.694415	4237.185333	1746.156250	-84.940132
-7397.694415	4237.185333	1745.144531	4.774956
-7397.694415	4237.185333	1744.132813	25.933197
-7397.694415	4237.185333	1743.121094	-134.772629
-7397.694415	4237.185333	1742.108398	2.029653
-7397.694415	4237.185333	1741.095703	108.066277
-7397.694415	4237.185333	1740.083008	263.596436
-7397.694415	4237.185333	1739.070313	256.227905
-7397.694415	4237.185333	1738.057617	100.209206
-7397.694415	4237.185333	1737.043945	-112.391327
-7397.694415	4237.185333	1736.030273	-32.512390
-7397.694415	4237.185333	1735.016602	120.404045
-7397.694415	4237.185333	1734.002930	-16.716816
-7397.694415	4237.185333	1732.989258	-33.607956
-7397.694415	4237.185333	1731.974609	173.339920
-7397.694415	4237.185333	1730.959961	-32.115475
-7397.694415	4237.185333	1729.945313	49.863163
-7397.694415	4237.185333	1728.930664	-91.947372
-7397.694415	4237.185333	1727.916016	-42.997845
-7397.694415	4237.185333	1726.900391	163.635422
-7397.694415	4237.185333	1725.885742	57.125854
-7397.694415	4237.185333	1724.870117	7.108447
-7397.694415	4237.185333	1723.853516	44.138260
-7397.694415	4237.185333	1722.837891	15.273577
-7397.694415	4237.185333	1721.822266	233.356018
-7397.694415	4237.185333	1720.805664	-2.511154
-7397.694415	4237.185333	1719.789063	161.371368
-7397.694415	4237.185333	1718.772461	-100.286995
-7397.694415	4237.185333	1717.754883	-89.251183
-7397.694415	4237.185333	1716.738281	-26.536945
-7397.694415	4237.185333	1715.720703	259.307831
-7397.694415	4237.185333	1714.703125	289.006989
-7397.694415	4237.185333	1713.685547	34.526711
-7397.694415	4237.185333	1712.667969	-15.603234
-7397.694415	4237.185333	1711.649414	-25.830465
-7397.694415	4237.185333	1710.630859	121.181160
-7397.694415	4237.185333	1709.612305	-88.555222
-7397.694415	4237.185333	1708.593750	236.686417
-7397.694415	4237.185333	1707.575195	247.472885
-7397.694415	4237.185333	1706.555664	169.115356
-7397.694415	4237.185333	1705.536133	175.187317
-7397.694415	4237.185333	1704.516602	99.193123
-7397.694415	4237.185333	1703.497070	-0.223245
-7397.694415	4237.185333	1702.477539	80.830261
-7397.694415	4237.185333	1701.457031	129.032913
-7397.694415	4237.185333	1700.437500	151.445435
-7397.694415	4237.185333	1699.416992	248.777512
-7397.694415	4237.185333	1698.395508	135.309814
-7397.694415	4237.185333	1697.375000	141.283813
-7397.694415	4237.185333	1696.354492	275.985199
-7397.694415	4237.185333	1695.333008	3.413523
-7397.694415	4237.185333	1694.311523	117.006638
-7397.694415	4237.185333	1693.290039	146.331406
-7397.694415	4237.185333	1692.267578	103.124649
-7397.694415	4237.185333	1691.246094	167.503876
-7397.694415	4237.185333	1690.223633	337.054626
-7397.694415	4237.185333	1689.201172	162.913010
-7397.694415	4237.185333	1688.178711	101.015038
-7397.694415	4237.185333	1687.155273	191.010635
-7397.694415	4237.185333	1686.132813	59.033886
-7397.694415	4237.185333	1685.109375	130.308044
-7397.694415	4237.185333	1684.085938	203.887207
-7397.694415	4237.185333	1683.062500	347.479828
-7397.694415	4237.185333	1682.039063	185.206482
-7397.694415	4237.185333	1681.014648	179.360641
-7397.694415	4237.185333	1679.990234	290.191711
-7397.694415	4237.185333	1678.965820	209.666962
-7397.694415	4237.185333	1677.941406	-85.428986
-7397.694415	4237.185333	1676.916992	482.491241
-7397.694415	4237.185333	1675.891602	371.653748
-7397.694415	4237.185333	1674.866211	211.903641
-7397.694415	4237.185333	1673.840820	180.410324
-7397.694415	4237.185333	1672.815430	465.861755
-7397.694415	4237.185333	1671.790039	259.590424
-7397.694415	4237.185333	1670.763672	293.329285
-7397.694415	4237.185333	1669.737305	143.065063
-7397.694415	4237.185333	1668.710938	363.104828
-7397.694415	4237.185333	1667.684570	347.922638
-7397.694415	4237.185333	1666.658203	365.338348
-7397.694415	4237.185333	1665.630859	333.872070
-7397.694415	4237.185333	1664.603516	579.309265
-7397.694415	4237.185333	1663.576172	364.044891
-7397.694415	4237.185333	1662.548828	420.996460
-7397.694415	4237.185333	1661.520508	663.959534
-7397.694415	4237.185333	1660.493164	537.170410
-7397.694415	4237.185333	1659.464844	440.649628
-7397.694415	4237.185333	1658.436523	511.507721
-7397.694415	4237.185333	1657.408203	614.876953
-7397.694415	4237.185333	1656.378906	683.360657
-7397.694415	4237.185333	1655.350586	830.806396
-7397.694415	4237.185333	1654.321289	885.305908
-7397.694415	4237.185333	1653.291992	1018.736450
-7397.694415	4237.185333	1652.261719	1140.511841
-7397.694415	4237.185333	1651.232422	1194.951172
-7397.694415	4237.185333	1650.202148	1441.974609
-7397.694415	4237.185333	1649.171875	1139.063721
-7397.694415	4237.185333	1648.141602	1237.572388
-7397.694415	4237.185333	1647.111328	1505.352661
-7397.694415	4237.185333	1646.080078	1499.428955
-7397.694415	4237.185333	1645.049805	1203.748047
-7397.694415	4237.185333	1644.018555	1290.625732
-7397.694415	4237.185333	1642.987305	1354.310059
-7397.694415	4237.185333	1641.955078	1404.075439
-7397.694415	4237.185333	1640.923828	1287.060913
-7397.694415	4237.185333	1639.891602	1183.996704
-7397.694415	4237.185333	1638.859375	1027.730225
-7397.694415	4237.185333	1637.827148	1179.450439
-7397.694415	4237.185333	1636.794922	990.875549
-7397.694415	4237.185333	1635.761719	1059.260620
-7397.694415	4237.185333	1634.729492	1102.192627
-7397.694415	4237.185333	1633.696289	1276.979126
-7397.694415	4237.185333	1632.662109	1201.921143
-7397.694415	4237.185333	1631.628906	1203.228027
-7397.694415	4237.185333	1630.594727	1223.043091
-7397.694415	4237.185333	1629.561523	1194.337036
-7397.694415	4237.185333	1628.527344	1230.365723
-7397.694415	4237.185333	1627.493164	1252.537964
-7397.694415	4237.185333	1626.458008	1371.743774
-7397.694415	4237.185333	1625.423828	1481.693970
-7397.694415	4237.185333	1624.388672	1556.978271
-7397.694415	4237.185333	1623.353516	1532.977539
-7397.694415	4237.185333	1622.318359	1331.266113
-7397.694415	4237.185333	1621.282227	1468.913818
-7397.694415	4237.185333	1620.247070	1509.626465
-7397.694415	4237.185333	1619.210938	1511.122070
-7397.694415	4237.185333	1618.174805	1406.540649
-7397.694415	4237.185333	1617.137695	1454.222656
-7397.694415	4237.185333	1616.101563	1250.602173
-7397.694415	4237.185333	1615.064453	1307.571167
-7397.694415	4237.185333	1614.027344	1394.506958
-7397.694415	4237.185333	1612.990234	1329.352539
-7397.694415	4237.185333	1611.953125	1400.179565
-7397.694415	4237.185333	1610.916016	1286.734619
-7397.694415	4237.185333	1609.877930	1293.110962
-7397.694415	4237.185333	1608.839844	1177.480835
-7397.694415	4237.185333	1607.801758	1170.123047
-7397.694415	4237.185333	1606.763672	1063.829956
-7397.694415	4237.185333	1605.724609	1353.406128
-7397.694415	4237.185333	1604.685547	1500.255859
-7397.694415	4237.185333	1603.646484	1513.662842
-7397.694415	4237.185333	1602.607422	1366.109009
-7397.694415	4237.185333	1601.568359	1496.872070
-7397.694415	4237.185333	1600.528320	1324.150146
-7397.694415	4237.185333	1599.489258	1392.878296
-7397.694415	4237.185333	1598.449219	1252.484863
-7397.694415	4237.185333	1597.408203	1546.421509
-7397.694415	4237.185333	1596.368164	1585.300415
-7397.694415	4237.185333	1595.327148	1573.666626
-7397.694415	4237.185333	1594.287109	1330.157715
-7397.694415	4237.185333	1593.246094	1598.739502
-7397.694415	4237.185333	1592.204102	1536.715088
-7397.694415	4237.185333	1591.163086	1545.900635
-7397.694415	4237.185333	1590.121094	1701.960571
-7397.694415	4237.185333	1589.079102	2025.459717
-7397.694415	4237.185333	1588.037109	2121.808594
-7397.694415	4237.185333	1586.995117	2298.417969
-7397.694415	4237.185333	1585.953125	2401.633057
-7397.694415	4237.185333	1584.910156	2520.886475
-7397.694415	4237.185333	1583.867188	2140.528809
-7397.694415	4237.185333	1582.824219	2124.680908
-7397.694415	4237.185333	1581.781250	2005.791016
-7397.694415	4237.185333	1580.737305	2116.025635
-7397.694415	4237.185333	1579.693359	1898.792969
-7397.694415	4237.185333	1578.649414	1860.271362
-7397.694415	4237.185333	1577.605469	1805.784302
-7397.694415	4237.185333	1576.561523	1710.166260
-7397.694415	4237.185333	1575.516602	1637.506104
-7397.694415	4237.185333	1574.472656	1807.423096
-7397.694415	4237.185333	1573.427734	1840.076050
-7397.694415	4237.185333	1572.381836	1861.322021
-7397.694415	4237.185333	1571.336914	1461.914795
-7397.694415	4237.185333	1570.291016	1668.479370
-7397.694415	4237.185333	1569.246094	1543.617920
-7397.694415	4237.185333	1568.200195	1571.943970
-7397.694415	4237.185333	1567.153320	1444.950073
-7397.694415	4237.185333	1566.107422	1155.882935
-7397.694415	4237.185333	1565.060547	1207.243774
-7397.694415	4237.185333	1564.013672	1276.899170
-7397.694415	4237.185333	1562.966797	1065.791016
-7397.694415	4237.185333	1561.919922	1080.768188
-7397.694415	4237.185333	1560.872070	758.061768
-7397.694415	4237.185333	1559.825195	780.036987
-7397.694415	4237.185333	1558.777344	710.808899
-7397.694415	4237.185333	1557.729492	662.183289
-7397.694415	4237.185333	1556.680664	554.341614
-7397.694415	4237.185333	1555.632813	512.707214
-7397.694415	4237.185333	1554.583984	557.747253
-7397.694415	4237.185333	1553.535156	329.370667
-7397.694415	4237.185333	1552.486328	472.501740
-7397.694415	4237.185333	1551.436523	428.839661
-7397.694415	4237.185333	1550.387695	223.556320
-7397.694415	4237.185333	1549.337891	325.794098
-7397.694415	4237.185333	1548.288086	412.110260
-7397.694415	4237.185333	1547.238281	325.465057
-7397.694415	4237.185333	1546.187500	407.301147
-7397.694415	4237.185333	1545.136719	448.207916
-7397.694415	4237.185333	1544.086914	559.673828
-7397.694415	4237.185333	1543.035156	434.618408
-7397.694415	4237.185333	1541.984375	305.125702
-7397.694415	4237.185333	1540.933594	364.430450
-7397.694415	4237.185333	1539.881836	351.032288
-7397.694415	4237.185333	1538.830078	371.783875
-7397.694415	4237.185333	1537.778320	274.438416
-7397.694415	4237.185333	1536.725586	320.296509
-7397.694415	4237.185333	1535.673828	145.896591
-7397.694415	4237.185333	1534.621094	314.496826
-7397.694415	4237.185333	1533.568359	290.118469
-7397.694415	4237.185333	1532.515625	445.123138
-7397.694415	4237.185333	1531.461914	282.413239
-7397.694415	4237.185333	1530.409180	491.931946
-7397.694415	4237.185333	1529.355469	447.356873
-7397.694415	4237.185333	1528.301758	110.288116
-7397.694415	4237.185333	1527.247070	152.092163
-7397.694415	4237.185333	1526.193359	218.882584
-7397.694415	4237.185333	1525.138672	274.372650
-7397.694415	4237.185333	1524.083984	87.416061
-7397.694415	4237.185333	1523.029297	136.236755
-7397.694415	4237.185333	1521.974609	241.733398
-7397.694415	4237.185333	1520.918945	168.322632
-7397.694415	4237.185333	1519.863281	92.740761
-7397.694415	4237.185333	1518.807617	101.018318
-7397.694415	4237.185333	1517.751953	104.830330
-7397.694415	4237.185333	1516.696289	27.232706
-7397.694415	4237.185333	1515.639648	228.032974
-7397.694415	4237.185333	1514.583008	-129.942993
-7397.694415	4237.185333	1513.526367	52.844055
-7397.694415	4237.185333	1512.469727	90.900223
-7397.694415	4237.185333	1511.412109	101.875076
-7397.694415	4237.185333	1510.355469	162.642059
-7397.694415	4237.185333	1509.297852	180.509903
-7397.694415	4237.185333	1508.240234	349.822632
-7397.694415	4237.185333	1507.181641	60.545483
-7397.694415	4237.185333	1506.124023	92.173447
-7397.694415	4237.185333	1505.065430	299.989380
-7397.694415	4237.185333	1504.006836	-43.089691
-7397.694415	4237.185333	1502.948242	103.859238
-7397.694415	4237.185333	1501.888672	176.341751
-7397.694415	4237.185333	1500.830078	54.817036
-7397.694415	4237.185333	1499.770508	80.042206
-7397.694415	4237.185333	1498.710938	-25.491858
-7397.694415	4237.185333	1497.650391	85.565384
-7397.694415	4237.185333	1496.590820	-173.101837
-7397.694415	4237.185333	1495.530273	-1.060107
-7397.694415	4237.185333	1494.469727	-40.862778
-7397.694415	4237.185333	1493.409180	-215.775330
-7397.694415	4237.185333	1492.348633	109.569595
-7397.694415	4237.185333	1491.287109	-71.921455
-7397.694415	4237.185333	1490.225586	-23.577471
-7397.694415	4237.185333	1489.164063	-184.567276
-7397.694415	4237.185333	1488.102539	-68.549911
-7397.694415	4237.185333	1487.041016	29.487450
-7397.694415	4237.185333	1485.978516	53.302273
-7397.694415	4237.185333	1484.916016	-149.983627
-7397.694415	4237.185333	1483.853516	-198.022491
-7397.694415	4237.185333	1482.791016	-30.035870
-7397.694415	4237.185333	1481.727539	-1.432065
-7397.694415	4237.185333	1480.664063	-49.176460
-7397.694415	4237.185333	1479.600586	-47.420326
-7397.694415	4237.185333	1478.537109	-0.629383
-7397.694415	4237.185333	1477.473633	61.946457
-7397.694415	4237.185333	1476.409180	-142.660355
-7397.694415	4237.185333	1475.344727	-106.844276
-7397.694415	4237.185333	1474.280273	119.723877
-7397.694415	4237.185333	1473.215820	117.513908
-7397.694415	4237.185333	1472.151367	115.470222
-7397.694415	4237.185333	1471.085938	489.995697
-7397.694415	4237.185333	1470.020508	303.942596
-7397.694415	4237.185333	1468.955078	207.834427
-7397.694415	4237.185333	1467.888672	358.387726
-7397.694415	4237.185333	1466.823242	553.824890
-7397.694415	4237.185333	1465.756836	509.450073
-7397.694415	4237.185333	1464.690430	840.948303
-7397.694415	4237.185333	1463.624023	995.921997
-7397.694415	4237.185333	1462.556641	1009.675110
-7397.694415	4237.185333	1461.490234	977.005371
-7397.694415	4237.185333	1460.422852	1260.767456
-7397.694415	4237.185333	1459.355469	1326.331543
-7397.694415	4237.185333	1458.287109	1083.647095
-7397.694415	4237.185333	1457.219727	968.644287
-7397.694415	4237.185333	1456.151367	1027.908691
-7397.694415	4237.185333	1455.083008	1033.715454
-7397.694415	4237.185333	1454.014648	1255.035278
-7397.694415	4237.185333	1452.945313	1275.652954
-7397.694415	4237.185333	1451.876953	1197.142456
-7397.694415	4237.185333	1450.807617	1290.817627
-7397.694415	4237.185333	1449.738281	1314.146606
-7397.694415	4237.185333	1448.668945	1281.621460
-7397.694415	4237.185333	1447.598633	983.290894
-7397.694415	4237.185333	1446.528320	1221.648438
-7397.694415	4237.185333	1445.458008	1420.449707
-7397.694415	4237.185333	1444.387695	1312.475952
-7397.694415	4237.185333	1443.317383	1218.372559
-7397.694415	4237.185333	1442.246094	1208.276733
-7397.694415	4237.185333	1441.174805	1117.748535
-7397.694415	4237.185333	1440.103516	1446.363281
-7397.694415	4237.185333	1439.032227	1024.022217
-7397.694415	4237.185333	1437.960938	955.084534
-7397.694415	4237.185333	1436.888672	826.069458
-7397.694415	4237.185333	1435.816406	976.302612
-7397.694415	4237.185333	1434.744141	901.621704
-7397.694415	4237.185333	1433.670898	642.853760
-7397.694415	4237.185333	1432.598633	549.208801
-7397.694415	4237.185333	1431.525391	469.168152
-7397.694415	4237.185333	1430.452148	368.870422
-7397.694415	4237.185333	1429.378906	310.225677
-7397.694415	4237.185333	1428.304688	347.315094
-7397.694415	4237.185333	1427.231445	203.825638
-7397.694415	4237.185333	1426.157227	220.705994
-7397.694415	4237.185333	1425.083008	156.829788
-7397.694415	4237.185333	1424.007813	153.789215
-7397.694415	4237.185333	1422.933594	278.642731
-7397.694415	4237.185333	1421.858398	213.154968
-7397.694415	4237.185333	1420.783203	495.713928
-7397.694415	4237.185333	1419.708008	284.992340
-7397.694415	4237.185333	1418.631836	508.559235
-7397.694415	4237.185333	1417.555664	361.652985
-7397.694415	4237.185333	1416.479492	386.743195
-7397.694415	4237.185333	1415.403320	506.537628
-7397.694415	4237.185333	1414.327148	361.091827
-7397.694415	4237.185333	1413.250000	262.323792
-7397.694415	4237.185333	1412.173828	444.544464
-7397.694415	4237.185333	1411.096680	341.248352
-7397.694415	4237.185333	1410.018555	374.917816
-7397.694415	4237.185333	1408.941406	203.919128
-7397.694415	4237.185333	1407.863281	130.494171
-7397.694415	4237.185333	1406.785156	514.420654
-7397.694415	4237.185333	1405.707031	29.199347
-7397.694415	4237.185333	1404.628906	390.496033
-7397.694415	4237.185333	1403.549805	344.476349
-7397.694415	4237.185333	1402.470703	560.996826
-7397.694415	4237.185333	1401.391602	547.705627
-7397.694415	4237.185333	1400.312500	179.647522
-7397.694415	4237.185333	1399.233398	343.753845
-7397.694415	4237.185333	1398.153320	500.053833
-7397.694415	4237.185333	1397.073242	473.768860
-7397.694415	4237.185333	1395.993164	397.366486
-7397.694415	4237.185333	1394.913086	134.896240
-7397.694415	4237.185333	1393.832031	80.811394
-7397.694415	4237.185333	1392.750977	277.182709
-7397.694415	4237.185333	1391.669922	176.866333
-7397.694415	4237.185333	1390.588867	299.124725
-7397.694415	4237.185333	1389.506836	260.797089
-7397.694415	4237.185333	1388.425781	195.353622
-7397.694415	4237.185333	1387.343750	385.949677
-7397.694415	4237.185333	1386.261719	234.743484
-7397.694415	4237.185333	1385.178711	293.858673
-7397.694415	4237.185333	1384.096680	265.041351
-7397.694415	4237.185333	1383.013672	46.930649
-7397.694415	4237.185333	1381.930664	33.972698
-7397.694415	4237.185333	1380.846680	59.170235
-7397.694415	4237.185333	1379.763672	163.865524
-7397.694415	4237.185333	1378.679688	6.144487
-7397.694415	4237.185333	1377.595703	331.849457
-7397.694415	4237.185333	1376.511719	304.427368
-7397.694415	4237.185333	1375.427734	309.918915
-7397.694415	4237.185333	1374.342773	122.309563
-7397.694415	4237.185333	1373.257813	128.833008
-7397.694415	4237.185333	1372.172852	204.673477
-7397.694415	4237.185333	1371.087891	0.863818
-7397.694415	4237.185333	1370.001953	166.925873
-7397.694415	4237.185333	1368.916992	228.171402
-7397.694415	4237.185333	1367.831055	54.831985
-7397.694415	4237.185333	1366.744141	178.750198
-7397.694415	4237.185333	1365.658203	374.662262
-7397.694415	4237.185333	1364.571289	140.817673
-7397.694415	4237.185333	1363.484375	24.728823
-7397.694415	4237.185333	1362.397461	322.393402
-7397.694415	4237.185333	1361.310547	322.219238
-7397.694415	4237.185333	1360.222656	131.285217
-7397.694415	4237.185333	1359.135742	88.199028
-7397.694415	4237.185333	1358.047852	104.273232
-7397.694415	4237.185333	1356.958984	-125.021713
-7397.694415	4237.185333	1355.871094	178.382446
-7397.694415	4237.185333	1354.782227	-5.301010
-7397.694415	4237.185333	1353.693359	132.142960
-7397.694415	4237.185333	1352.604492	49.818424
-7397.694415	4237.185333	1351.515625	-69.034782
-7397.694415	4237.185333	1350.425781	-65.566803
-7397.694415	4237.185333	1349.335938	-176.894836
-7397.694415	4237.185333	1348.246094	64.063683
-7397.694415	4237.185333	1347.156250	26.696037
-7397.694415	4237.185333	1346.066406	140.845535
-7397.694415	4237.185333	1344.975586	155.049774
-7397.694415	4237.185333	1343.884766	165.076050
-7397.694415	4237.185333	1342.793945	97.346756
-7397.694415	4237.185333	1341.702148	-53.961689
-7397.694415	4237.185333	1340.611328	-91.330338
-7397.694415	4237.185333	1339.519531	92.435890
-7397.694415	4237.185333	1338.427734	129.504425
-7397.694415	4237.185333	1337.334961	-39.429626
-7397.694415	4237.185333	1336.243164	-10.584968
-7397.694415	4237.185333	1335.150391	253.060974
-7397.694415	4237.185333	1334.057617	52.942020
-7397.694415	4237.185333	1332.964844	295.184662
-7397.694415	4237.185333	1331.871094	445.229370
-7397.694415	4237.185333	1330.778320	760.412598
-7397.694415	4237.185333	1329.684570	691.286621
-7397.694415	4237.185333	1328.590820	833.621948
-7397.694415	4237.185333	1327.496094	626.928589
-7397.694415	4237.185333	1326.402344	526.376648
-7397.694415	4237.185333	1325.307617	520.682739
-7397.694415	4237.185333	1324.212891	251.958115
-7397.694415	4237.185333	1323.117188	346.262573
-7397.694415	4237.185333	1322.022461	187.141922
-7397.694415	4237.185333	1320.926758	177.493820
-7397.694415	4237.185333	1319.831055	67.660683
-7397.694415	4237.185333	1318.735352	-53.263260
-7397.694415	4237.185333	1317.638672	120.522301
-7397.694415	4237.185333	1316.542969	40.380096
-7397.694415	4237.185333	1315.446289	-140.930496
-7397.694415	4237.185333	1314.349609	-62.026257
-7397.694415	4237.185333	1313.251953	189.841522
-7397.694415	4237.185333	1312.155273	-6.713770
-7397.694415	4237.185333	1311.057617	-9.431492
-7397.694415	4237.185333	1309.959961	190.073380
-7397.694415	4237.185333	1308.862305	107.463417
-7397.694415	4237.185333	1307.763672	83.890793
-7397.694415	4237.185333	1306.665039	148.768738
-7397.694415	4237.185333	1305.566406	207.981491
-7397.694415	4237.185333	1304.467773	216.512909
-7397.694415	4237.185333	1303.369141	235.300919
-7397.694415	4237.185333	1302.269531	169.524216
-7397.694415	4237.185333	1301.169922	397.436676
-7397.694415	4237.185333	1300.070313	451.041718
-7397.694415	4237.185333	1298.970703	346.900269
-7397.694415	4237.185333	1297.870117	340.324921
-7397.694415	4237.185333	1296.769531	313.714996
-7397.694415	4237.185333	1295.668945	211.454666
-7397.694415	4237.185333	1294.568359	259.512146
-7397.694415	4237.185333	1293.466797	27.151304
-7397.694415	4237.185333	1292.366211	117.415054
-7397.694415	4237.185333	1291.264648	215.879562
-7397.694415	4237.185333	1290.162109	196.602936
-7397.694415	4237.185333	1289.060547	-7.985355
-7397.694415	4237.185333	1287.958008	152.369720
-7397.694415	4237.185333	1286.855469	227.436295
-7397.694415	4237.185333	1285.752930	13.619102
-7397.694415	4237.185333	1284.650391	192.227142
-7397.694415	4237.185333	1283.546875	-38.044827
-7397.694415	4237.185333	1282.444336	28.354420
-7397.694415	4237.185333	1281.339844	9.805237
-7397.694415	4237.185333	1280.236328	85.147827
-7397.694415	4237.185333	1279.132813	-3.967966
-7397.694415	4237.185333	1278.028320	102.773811
-7397.694415	4237.185333	1276.923828	51.158661
-7397.694415	4237.185333	1275.819336	-142.369644
-7397.694415	4237.185333	1274.713867	-46.980457
-7397.694415	4237.185333	1273.608398	-17.569965
-7397.694415	4237.185333	1272.503906	88.165741
-7397.694415	4237.185333	1271.397461	14.285300
-7397.694415	4237.185333	1270.291992	-11.851134
-7397.694415	4237.185333	1269.185547	-72.515160
-7397.694415	4237.185333	1268.080078	-195.513489
-7397.694415	4237.185333	1266.972656	94.154091
-7397.694415	4237.185333	1265.866211	-42.690517
-7397.694415	4237.185333	1264.759766	-123.269310
-7397.694415	4237.185333	1263.652344	-73.386238
-7397.694415	4237.185333	1262.544922	61.859203
-7397.694415	4237.185333	1261.436523	71.411133
-7397.694415	4237.185333	1260.329102	94.364975
-7397.694415	4237.185333	1259.220703	28.741383
-7397.694415	4237.185333	1258.112305	76.640999
-7397.694415	4237.185333	1257.003906	91.789818
-7397.694415	4237.185333	1255.895508	27.161886
-7397.694415	4237.185333	1254.786133	102.085182
-7397.694415	4237.185333	1253.676758	118.130028
-7397.694415	4237.185333	1252.567383	160.190384
-7397.694415	4237.185333	1251.458008	3.666086
-7397.694415	4237.185333	1250.347656	46.676163
-7397.694415	4237.185333	1249.237305	156.580933
-7397.694415	4237.185333	1248.126953	-18.325226
-7397.694415	4237.185333	1247.016602	81.078201
-7397.694415	4237.185333	1245.905273	76.327271
-7397.694415	4237.185333	1244.793945	18.905325
-7397.694415	4237.185333	1243.682617	-30.101273
-7397.694415	4237.185333	1242.571289	-96.425507
-7397.694415	4237.185333	1241.459961	-39.190010
-7397.694415	4237.185333	1240.347656	25.541697
-7397.694415	4237.185333	1239.235352	-8.798825
-7397.694415	4237.185333	1238.123047	69.917755
-7397.694415	4237.185333	1237.009766	63.259758
-7397.694415	4237.185333	1235.897461	33.815445
-7397.694415	4237.185333	1234.784180	182.503265
-7397.694415	4237.185333	1233.670898	109.167870
-7397.694415	4237.185333	1232.556641	159.127579
-7397.694415	4237.185333	1231.443359	-53.786179
-7397.694415	4237.185333	1230.329102	98.362633
-7397.694415	4237.185333	1229.214844	3.477249
-7397.694415	4237.185333	1228.099609	77.917999
-7397.694415	4237.185333	1226.985352	28.841513
-7397.694415	4237.185333	1225.870117	41.005116
-7397.694415	4237.185333	1224.754883	165.502487
-7397.694415	4237.185333	1223.639648	120.690506
-7397.694415	4237.185333	1222.523438	8.018370
-7397.694415	4237.185333	1221.408203	106.009926
-7397.694415	4237.185333	1220.291992	-39.834347
-7397.694415	4237.185333	1219.174805	-26.683943
-7397.694415	4237.185333	1218.058594	31.154949
-7397.694415	4237.185333	1216.941406	-111.701988
-7397.694415	4237.185333	1215.824219	35.557713
-7397.694415	4237.185333	1214.707031	-72.165100
-7397.694415	4237.185333	1213.589844	13.613442
-7397.694415	4237.185333	1212.471680	-29.297167
-7397.694415	4237.185333	1211.353516	-141.269958
-7397.694415	4237.185333	1210.235352	-32.971474
-7397.694415	4237.185333	1209.117188	36.741352
-7397.694415	4237.185333	1207.998047	37.488541
-7397.694415	4237.185333	1206.878906	155.500610
-7397.694415	4237.185333	1205.759766	-44.084278
-7397.694415	4237.185333	1204.640625	52.555660
-7397.694415	4237.185333	1203.520508	164.897827
-7397.694415	4237.185333	1202.401367	-38.517971
-7397.694415	4237.185333	1201.281250	-18.693474
-7397.694415	4237.185333	1200.160156	-27.554005
-7397.694415	4237.185333	1199.040039	-189.349731
-7397.694415	4237.185333	1197.918945	104.190994
-7397.694415	4237.185333	1196.797852	-165.599625
-7397.694415	4237.185333	1195.676758	-96.128311
-7397.694415	4237.185333	1194.555664	0.390605
-7397.694415	4237.185333	1193.433594	41.886589
-7397.694415	4237.185333	1192.311523	-81.587387
-7397.694415	4237.185333	1191.189453	-23.279823
-7397.694415	4237.185333	1190.066406	-111.542549
-7397.694415	4237.185333	1188.944336	-147.492615
-7397.694415	4237.185333	1187.821289	-148.254150
-7397.694415	4237.185333	1186.698242	9.571642
-7397.694415	4237.185333	1185.574219	-86.279236
-7397.694415	4237.185333	1184.451172	42.220840
-7397.694415	4237.185333	1183.327148	-9.670527
-7397.694415	4237.185333	1182.203125	-193.702911
-7397.694415	4237.185333	1181.078125	17.031496
-7397.694415	4237.185333	1179.954102	56.874947
-7397.694415	4237.185333	1178.829102	-81.723686
-7397.694415	4237.185333	1177.704102	-86.508034
-7397.694415	4237.185333	1176.579102	-96.283203
-7397.694415	4237.185333	1175.453125	-107.498863
-7397.694415	4237.185333	1174.327148	-52.756969
-7397.694415	4237.185333	1173.201172	-50.323555
-7397.694415	4237.185333	1172.075195	-13.032992
-7397.694415	4237.185333	1170.949219	24.739321
-7397.694415	4237.185333	1169.822266	-36.061855
-7397.694415	4237.185333	1168.695313	-18.137955
-7397.694415	4237.185333	1167.568359	29.935448
-7397.694415	4237.185333	1166.440430	-44.466290
-7397.694415	4237.185333	1165.313477	-79.388000
-7397.694415	4237.185333	1164.185547	-10.867666
-7397.694415	4237.185333	1163.057617	-75.609512
-7397.694415	4237.185333	1161.928711	83.606468
-7397.694415	4237.185333	1160.800781	24.243460
-7397.694415	4237.185333	1159.671875	-145.404663
-7397.694415	4237.185333	1158.541992	119.070854
-7397.694415	4237.185333	1157.413086	-89.017998
-7397.694415	4237.185333	1156.283203	-42.039608
-7397.694415	4237.185333	1155.154297	51.628677
-7397.694415	4237.185333	1154.023438	50.818050
-7397.694415	4237.185333	1152.893555	-109.032822
-7397.694415	4237.185333	1151.763672	-72.072212
-7397.694415	4237.185333	1150.632813	231.900116
-7397.694415	4237.185333	1149.501953	31.677399
-7397.694415	4237.185333	1148.370117	26.610207
-7397.694415	4237.185333	1147.239258	134.376312
-7397.694415	4237.185333	1146.107422	60.096123
-7397.694415	4237.185333	1144.975586	82.470215
-7397.694415	4237.185333	1143.843750	2.346934
-7397.694415	4237.185333	1142.710938	-31.781649
-7397.694415	4237.185333	1141.578125	-17.621111
-7397.694415	4237.185333	1140.445313	-84.585785
-7397.694415	4237.185333	1139.312500	92.684418
-7397.694415	4237.185333	1138.178711	-68.316589
-7397.694415	4237.185333	1137.045898	24.607117
-7397.694415	4237.185333	1135.912109	-44.252670
-7397.694415	4237.185333	1134.777344	55.350780
-7397.694415	4237.185333	1133.643555	33.563786
-7397.694415	4237.185333	1132.508789	95.915268
-7397.694415	4237.185333	1131.374023	15.179460
-7397.694415	4237.185333	1130.239258	193.151062
-7397.694415	4237.185333	1129.104492	137.641373
-7397.694415	4237.185333	1127.968750	225.249557
-7397.694415	4237.185333	1126.833008	68.052704
-7397.694415	4237.185333	1125.697266	148.395355
-7397.694415	4237.185333	1124.560547	55.733006
-7397.694415	4237.185333	1123.424805	48.528046
-7397.694415	4237.185333	1122.288086	118.416275
-7397.694415	4237.185333	1121.151367	179.367569
-7397.694415	4237.185333	1120.013672	69.861755
-7397.694415	4237.185333	1118.876953	119.231613
-7397.694415	4237.185333	1117.739258	91.757210
-7397.694415	4237.185333	1116.601563	127.524818
-7397.694415	4237.185333	1115.462891	322.000458
-7397.694415	4237.185333	1114.324219	316.357361
-7397.694415	4237.185333	1113.186523	189.022842
-7397.694415	4237.185333	1112.046875	92.992722
-7397.694415	4237.185333	1110.908203	170.978912
-7397.694415	4237.185333	1109.769531	77.150490
-7397.694415	4237.185333	1108.629883	174.651047
-7397.694415	4237.185333	1107.490234	201.989014
-7397.694415	4237.185333	1106.349609	80.013008
-7397.694415	4237.185333	1105.209961	76.853569
-7397.694415	4237.185333	1104.069336	145.362274
-7397.694415	4237.185333	1102.928711	31.683491
-7397.694415	4237.185333	1101.787109	72.631485
-7397.694415	4237.185333	1100.646484	104.905510
-7397.694415	4237.185333	1099.504883	122.960365
-7397.694415	4237.185333	1098.363281	136.805817
-7397.694415	4237.185333	1097.221680	137.289444
-7397.694415	4237.185333	1096.079102	173.049591
-7397.694415	4237.185333	1094.936523	268.893036
-7397.694415	4237.185333	1093.793945	104.633163
-7397.694415	4237.185333	1092.651367	105.052177
-7397.694415	4237.185333	1091.507813	259.867371
-7397.694415	4237.185333	1090.364258	129.024384
-7397.694415	4237.185333	1089.220703	323.227234
-7397.694415	4237.185333	1088.077148	207.588226
-7397.694415	4237.185333	1086.933594	254.500885
-7397.694415	4237.185333	1085.789063	301.097382
-7397.694415	4237.185333	1084.644531	327.256195
-7397.694415	4237.185333	1083.499023	64.966843
-7397.694415	4237.185333	1082.354492	348.935699
-7397.694415	4237.185333	1081.208984	-41.568085
-7397.694415	4237.185333	1080.063477	157.436615
-7397.694415	4237.185333	1078.917969	282.794525
-7397.694415	4237.185333	1077.771484	66.110321
-7397.694415	4237.185333	1076.625977	210.519424
-7397.694415	4237.185333	1075.479492	122.166634
-7397.694415	4237.185333	1074.332031	16.225697
-7397.694415	4237.185333	1073.185547	188.427032
-7397.694415	4237.185333	1072.038086	133.458191
-7397.694415	4237.185333	1070.890625	36.134613
-7397.694415	4237.185333	1069.743164	158.450500
-7397.694415	4237.185333	1068.594727	144.210434
-7397.694415	4237.185333	1067.447266	131.067093
-7397.694415	4237.185333	1066.298828	138.885422
-7397.694415	4237.185333	1065.149414	291.405609
-7397.694415	4237.185333	1064.000977	278.812836
-7397.694415	4237.185333	1062.851563	75.247177
-7397.694415	4237.185333	1061.702148	37.566437
-7397.694415	4237.185333	1060.552734	160.144730
-7397.694415	4237.185333	1059.402344	186.643784
-7397.694415	4237.185333	1058.252930	132.974747
-7397.694415	4237.185333	1057.102539	68.566460
-7397.694415	4237.185333	1055.951172	185.383759
-7397.694415	4237.185333	1054.800781	35.098740
-7397.694415	4237.185333	1053.649414	142.247482
-7397.694415	4237.185333	1052.498047	89.300377
-7397.694415	4237.185333	1051.346680	-25.647713
-7397.694415	4237.185333	1050.194336	46.944595
-7397.694415	4237.185333	1049.042969	84.993912
-7397.694415	4237.185333	1047.890625	-19.572418
-7397.694415	4237.185333	1046.738281	-68.798447
-7397.694415	4237.185333	1045.584961	-71.880203
-7397.694415	4237.185333	1044.431641	4.706693
-7397.694415	4237.185333	1043.278320	-13.155754
-7397.694415	4237.185333	1042.125000	-32.440044
-7397.694415	4237.185333	1040.971680	-12.235857
-7397.694415	4237.185333	1039.817383	-68.102669
-7397.694415	4237.185333	1038.663086	-61.846947
-7397.694415	4237.185333	1037.508789	-63.049561
-7397.694415	4237.185333	1036.353516	56.542412
-7397.694415	4237.185333	1035.198242	54.658768
-7397.694415	4237.185333	1034.042969	94.621956
-7397.694415	4237.185333	1032.887695	295.624542
-7397.694415	4237.185333	1031.732422	-37.145752
-7397.694415	4237.185333	1030.576172	320.391968
-7397.694415	4237.185333	1029.419922	31.237185
-7397.694415	4237.185333	1028.263672	291.335449
-7397.694415	4237.185333	1027.106445	106.377930
-7397.694415	4237.185333	1025.949219	208.965790
-7397.694415	4237.185333	1024.792969	33.487469
-7397.694415	4237.185333	1023.634766	104.045166
-7397.694415	4237.185333	1022.477539	37.783215
-7397.694415	4237.185333	1021.319336	93.524948
-7397.694415	4237.185333	1020.161133	-86.015976
-7397.694415	4237.185333	1019.002930	-136.174286
-7397.694415	4237.185333	1017.843750	-22.686750
-7397.694415	4237.185333	1016.684570	-101.293724
-7397.694415	4237.185333	1015.525391	-126.588707
-7397.694415	4237.185333	1014.366211	27.201982
-7397.694415	4237.185333	1013.207031	57.393051
-7397.694415	4237.185333	1012.046875	-81.863754
-7397.694415	4237.185333	1010.886719	-56.021500
-7397.694415	4237.185333	1009.726563	79.503090
-7397.694415	4237.185333	1008.565430	-212.276993
-7397.694415	4237.185333	1007.404297	-28.875252
-7397.694415	4237.185333	1006.243164	25.124590
-7397.694415	4237.185333	1005.082031	-85.219582
-7397.694415	4237.185333	1003.920898	117.406967
-7397.694415	4237.185333	1002.758789	264.566895
-7397.694415	4237.185333	1001.596680	-22.421122
-7397.694415	4237.185333	1000.433594	110.511406
-7397.694415	4237.185333	999.271484	36.061337
-7397.694415	4237.185333	998.108398	81.909271
-7397.694415	4237.185333	996.945313	208.542953
-7397.694415	4237.185333	995.782227	92.165794
-7397.694415	4237.185333	994.618164	252.265091
-7397.694415	4237.185333	993.454102	130.731033
-7397.694415	4237.185333	992.290039	43.631283
-7397.694415	4237.185333	991.125977	-2.221354
-7397.694415	4237.185333	989.960938	-54.594574
-7397.694415	4237.185333	988.796875	3.216809
-7397.694415	4237.185333	987.630859	41.711800
-7397.694415	4237.185333	986.465820	150.883194
-7397.694415	4237.185333	985.300781	34.113697
-7397.694415	4237.185333	984.134766	225.329819
-7397.694415	4237.185333	982.968750	108.020622
-7397.694415	4237.185333	981.801758	80.071579
-7397.694415	4237.185333	980.635742	55.903080
-7397.694415	4237.185333	979.468750	66.165611
-7397.694415	4237.185333	978.301758	4.104203
-7397.694415	4237.185333	977.133789	-15.363544
-7397.694415	4237.185333	975.966797	-89.509430
-7397.694415	4237.185333	974.798828	62.688915
-7397.694415	4237.185333	973.630859	-71.408150
-7397.694415	4237.185333	972.461914	-16.001261
-7397.694415	4237.185333	971.293945	67.008064
-7397.694415	4237.185333	970.125000	-190.110901
-7397.694415	4237.185333	968.956055	-216.683243
-7397.694415	4237.185333	967.786133	92.833450
-7397.694415	4237.185333	966.617188	-54.985577
-7397.694415	4237.185333	965.447266	-10.412242
-7397.694415	4237.185333	964.276367	86.714836
-7397.694415	4237.185333	963.106445	119.299149
-7397.694415	4237.185333	961.935547	82.490517
-7397.694415	4237.185333	960.764648	251.460083
-7397.694415	4237.185333	959.593750	144.994308
-7397.694415	4237.185333	958.422852	51.646236
-7397.694415	4237.185333	957.250977	8.267672
-7397.694415	4237.185333	956.079102	199.461487
-7397.694415	4237.185333	954.907227	64.394981
-7397.694415	4237.185333	953.734375	21.181635
-7397.694415	4237.185333	952.562500	37.780933
-7397.694415	4237.185333	951.389648	-22.663486
-7397.694415	4237.185333	950.215820	76.329086
-7397.694415	4237.185333	949.042969	-46.356941
-7397.694415	4237.185333	947.869141	-58.301693
-7397.694415	4237.185333	946.695313	127.544128
-7397.694415	4237.185333	945.521484	299.047028
-7397.694415	4237.185333	944.346680	248.904327
-7397.694415	4237.185333	943.172852	217.184174
-7397.694415	4237.185333	941.998047	434.569977
-7397.694415	4237.185333	940.822266	378.911560
-7397.694415	4237.185333	939.647461	327.897278
-7397.694415	4237.185333	938.471680	451.382355
-7397.694415	4237.185333	937.295898	231.042099
-7397.694415	4237.185333	936.119141	267.472198
-7397.694415	4237.185333	934.943359	42.305412
-7397.694415	4237.185333	933.766602	242.922211
-7397.694415	4237.185333	932.589844	252.410126
-7397.694415	4237.185333	931.413086	240.178604
-7397.694415	4237.185333	930.235352	160.243149
-7397.694415	4237.185333	929.057617	-50.267673
-7397.694415	4237.185333	927.879883	200.869080
-7397.694415	4237.185333	926.702148	205.507187
-7397.694415	4237.185333	925.523438	198.010696
-7397.694415	4237.185333	924.344727	31.133247
-7397.694415	4237.185333	923.166016	-157.454987
-7397.694415	4237.185333	921.987305	83.810722
-7397.694415	4237.185333	920.807617	-37.138264
-7397.694415	4237.185333	919.627930	-33.047298
-7397.694415	4237.185333	919.497070	216.523178
-7397.694415	4237.185333	918.331055	30.373240
-7397.694415	4237.185333	917.165039	-146.061111
-7397.694415	4237.185333	915.999023	126.230095
-7397.694415	4237.185333	914.833008	-173.172821
-7397.694415	4237.185333	913.666016	26.657534
-7397.694415	4237.185333	912.499023	-31.550545
-7397.694415	4237.185333	911.332031	-231.949173
-7397.694415	4237.185333	910.165039	-102.143616
-7397.694415	4237.185333	908.997070	-165.138184
-7397.694415	4237.185333	907.830078	15.163290
-7397.694415	4237.185333	906.661133	-74.336586
-7397.694415	4237.185333	905.493164	67.332039
-7397.694415	4237.185333	904.325195	-26.980675
-7397.694415	4237.185333	903.156250	30.367373
-7397.694415	4237.185333	901.987305	-59.102482
-7397.694415	4237.185333	900.818359	-81.182045
-7397.694415	4237.185333	899.648438	-28.693115
-7397.694415	4237.185333	898.478516	64.646400
-7397.694415	4237.185333	897.308594	71.383545
-7397.694415	4237.185333	896.138672	126.186447
-7397.694415	4237.185333	894.968750	274.689056
-7397.694415	4237.185333	893.797852	93.933784
-7397.694415	4237.185333	892.626953	314.441010
-7397.694415	4237.185333	891.456055	313.875916
-7397.694415	4237.185333	890.284180	354.130493
-7397.694415	4237.185333	889.113281	461.583282
-7397.694415	4237.185333	887.941406	417.761261
-7397.694415	4237.185333	886.768555	169.958496
-7397.694415	4237.185333	885.596680	351.745941
-7397.694415	4237.185333	884.423828	298.358521
-7397.694415	4237.185333	883.250977	336.127167
-7397.694415	4237.185333	882.078125	335.505127
-7397.694415	4237.185333	880.905273	325.286469
-7397.694415	4237.185333	879.731445	540.385498
-7397.694415	4237.185333	878.557617	458.223969
-7397.694415	4237.185333	877.383789	385.673096
-7397.694415	4237.185333	876.209961	598.211487
-7397.694415	4237.185333	875.035156	338.839355
-7397.694415	4237.185333	873.860352	417.197205
-7397.694415	4237.185333	872.685547	418.906219
-7397.694415	4237.185333	871.510742	423.001587
-7397.694415	4237.185333	870.334961	336.155396
-7397.694415	4237.185333	869.159180	172.776733
-7397.694415	4237.185333	867.983398	356.309937
-7397.694415	4237.185333	866.807617	247.987503
-7397.694415	4237.185333	865.630859	244.915024
-7397.694415	4237.185333	864.454102	253.791611
-7397.694415	4237.185333	863.277344	233.975693
-7397.694415	4237.185333	862.100586	49.276840
-7397.694415	4237.185333	860.922852	-75.620277
-7397.694415	4237.185333	859.745117	7.339906
-7397.694415	4237.185333	858.567383	21.004066
-7397.694415	4237.185333	857.389648	20.329222
-7397.694415	4237.185333	856.210938	201.078094
-7397.694415	4237.185333	855.032227	83.409798
-7397.694415	4237.185333	853.853516	-117.734322
-7397.694415	4237.185333	852.674805	93.926971
-7397.694415	4237.185333	851.495117	121.835052
-7397.694415	4237.185333	850.315430	154.495697
-7397.694415	4237.185333	849.135742	46.464523
-7397.694415	4237.185333	847.956055	14.752201
-7397.694415	4237.185333	846.775391	87.913353
-7397.694415	4237.185333	845.595703	96.698875
-7397.694415	4237.185333	844.415039	-30.313198
-7397.694415	4237.185333	843.233398	-69.150307
-7397.694415	4237.185333	842.052734	-38.923855
-7397.694415	4237.185333	840.871094	-8.714051
-7397.694415	4237.185333	839.689453	26.236822
-7397.694415	4237.185333	838.506836	-31.644632
-7397.694415	4237.185333	837.325195	107.973579
-7397.694415	4237.185333	836.142578	-78.374588
-7397.694415	4237.185333	834.959961	-55.357178
-7397.694415	4237.185333	833.777344	12.822533
-7397.694415	4237.185333	832.593750	83.346947
-7397.694415	4237.185333	831.410156	-26.811373
-7397.694415	4237.185333	830.226563	122.097420
-7397.694415	4237.185333	829.042969	209.161057
-7397.694415	4237.185333	827.858398	72.892921
-7397.694415	4237.185333	826.673828	-25.328157
-7397.694415	4237.185333	825.489258	-26.166426
-7397.694415	4237.185333	824.304688	-31.760744
-7397.694415	4237.185333	823.120117	-82.458961
-7397.694415	4237.185333	821.934570	199.074509
-7397.694415	4237.185333	820.749023	143.588593
-7397.694415	4237.185333	819.562500	-222.614319
-7397.694415	4237.185333	818.376953	23.170937
-7397.694415	4237.185333	817.190430	138.440857
-7397.694415	4237.185333	816.003906	253.651443
-7397.694415	4237.185333	814.817383	-36.472946
-7397.694415	4237.185333	813.629883	17.098482
-7397.694415	4237.185333	812.442383	-19.388231
-7397.694415	4237.185333	811.254883	-10.868892
-7397.694415	4237.185333	810.067383	-130.241226
-7397.694415	4237.185333	808.878906	81.888779
-7397.694415	4237.185333	807.690430	-63.514080
-7397.694415	4237.185333	806.501953	11.225697
-7397.694415	4237.185333	805.313477	128.511139
-7397.694415	4237.185333	804.124023	82.507690
-7397.694415	4237.185333	802.934570	161.863739
-7397.694415	4237.185333	801.745117	163.137589
-7397.694415	4237.185333	800.555664	8.361156
-7397.694415	4237.185333	799.365234	75.822830
-7397.694415	4237.185333	798.175781	84.158737
-7397.694415	4237.185333	796.985352	-35.106792
-7397.694415	4237.185333	795.793945	84.246582
-7397.694415	4237.185333	794.603516	158.658752
-7397.694415	4237.185333	793.412109	-29.070656
-7397.694415	4237.185333	792.220703	2.810365
-7397.694415	4237.185333	791.028320	60.625229
-7397.694415	4237.185333	789.836914	59.402782
-7397.694415	4237.185333	788.644531	-69.236183
-7397.694415	4237.185333	787.452148	-63.389236
-7397.694415	4237.185333	786.258789	-43.411758
-7397.694415	4237.185333	785.066406	136.867783
-7397.694415	4237.185333	783.873047	48.320023
-7397.694415	4237.185333	782.679688	-49.637909
-7397.694415	4237.185333	781.485352	-34.469875
-7397.694415	4237.185333	780.291992	30.143225
-7397.694415	4237.185333	779.097656	40.535755
-7397.694415	4237.185333	777.903320	352.328003
-7397.694415	4237.185333	776.708008	-65.891228
-7397.694415	4237.185333	775.512695	-69.671570
-7397.694415	4237.185333	774.318359	67.728485
-7397.694415	4237.185333	773.122070	28.583773
-7397.694415	4237.185333	771.926758	57.648880
-7397.694415	4237.185333	770.730469	13.770566
-7397.694415	4237.185333	769.534180	-126.524521
-7397.694415	4237.185333	768.337891	99.964363
-7397.694415	4237.185333	767.141602	-35.640182
-7397.694415	4237.185333	765.944336	-9.063063
-7397.694415	4237.185333	764.747070	-55.357639
-7397.694415	4237.185333	763.549805	-26.492134
-7397.694415	4237.185333	762.351563	-96.302856
-7397.694415	4237.185333	761.154297	-72.191803
-7397.694415	4237.185333	759.956055	22.308474
-7397.694415	4237.185333	758.757813	-17.041815
-7397.694415	4237.185333	757.558594	28.073257
-7397.694415	4237.185333	756.359375	23.871950
-7397.694415	4237.185333	755.160156	26.678997
-7397.694415	4237.185333	753.960938	-111.253143
-7397.694415	4237.185333	752.761719	67.364136
-7397.694415	4237.185333	751.561523	-65.890686
-7397.694415	4237.185333	750.361328	96.174393
-7397.694415	4237.185333	749.160156	26.170038
-7397.694415	4237.185333	747.959961	94.376427
-7397.694415	4237.185333	746.758789	3.253586
-7397.694415	4237.185333	745.557617	43.269997
-7397.694415	4237.185333	744.356445	41.092178
-7397.694415	4237.185333	743.154297	-24.316818
-7397.694415	4237.185333	741.952148	-87.394684
-7397.694415	4237.185333	740.750000	48.395206
-7397.694415	4237.185333	739.547852	32.039700
-7397.694415	4237.185333	738.344727	106.866943
-7397.694415	4237.185333	737.142578	97.445732
-7397.694415	4237.185333	735.939453	80.978729
-7397.694415	4237.185333	734.735352	337.942902
-7397.694415	4237.185333	733.532227	293.312500
-7397.694415	4237.185333	732.328125	236.980453
-7397.694415	4237.185333	731.124023	189.975143
-7397.694415	4237.185333	729.918945	266.722168
-7397.694415	4237.185333	728.714844	371.411896
-7397.694415	4237.185333	727.509766	102.520935
-7397.694415	4237.185333	726.303711	263.131744
-7397.694415	4237.185333	725.098633	243.962189
-7397.694415	4237.185333	723.892578	224.758255
-7397.694415	4237.185333	722.686523	186.858185
-7397.694415	4237.185333	721.480469	188.573013
-7397.694415	4237.185333	720.274414	157.601532
-7397.694415	4237.185333	719.067383	12.383706
-7397.694415	4237.185333	717.860352	65.267662
-7397.694415	4237.185333	716.653320	-3.074172
-7397.694415	4237.185333	715.445313	-38.820114
-7397.694415	4237.185333	714.238281	-39.664684
-7397.694415	4237.185333	713.030273	-7.957257
-7397.694415	4237.185333	711.821289	163.369980
-7397.694415	4237.185333	710.613281	118.116905
-7397.694415	4237.185333	709.404297	-10.939137
-7397.694415	4237.185333	708.195313	53.112839
-7397.694415	4237.185333	706.986328	-6.193386
-7397.694415	4237.185333	705.776367	85.637428
-7397.694415	4237.185333	704.566406	98.325974
-7397.694415	4237.185333	703.356445	206.266388
-7397.694415	4237.185333	702.146484	223.470032
-7397.694415	4237.185333	700.935547	-100.957642
-7397.694415	4237.185333	699.724609	148.511841
-7397.694415	4237.185333	698.513672	133.042206
-7397.694415	4237.185333	697.302734	124.491486
-7397.694415	4237.185333	696.090820	-95.379715
-7397.694415	4237.185333	694.878906	-25.066156
-7397.694415	4237.185333	693.666992	144.954300
-7397.694415	4237.185333	692.455078	140.832718
-7397.694415	4237.185333	691.242188	380.226990
-7397.694415	4237.185333	690.029297	153.301743
-7397.694415	4237.185333	688.816406	230.169998
-7397.694415	4237.185333	687.602539	128.444611
-7397.694415	4237.185333	686.389648	249.210464
-7397.694415	4237.185333	685.175781	399.993378
-7397.694415	4237.185333	683.960938	566.873047
-7397.694415	4237.185333	682.747070	448.720825
-7397.694415	4237.185333	681.532227	332.874695
-7397.694415	4237.185333	680.317383	365.200989
-7397.694415	4237.185333	679.102539	531.717041
-7397.694415	4237.185333	677.886719	475.925079
-7397.694415	4237.185333	676.670898	357.624176
-7397.694415	4237.185333	675.455078	341.102203
-7397.694415	4237.185333	674.239258	412.417603
-7397.694415	4237.185333	673.022461	446.644745
-7397.694415	4237.185333	671.805664	501.605347
-7397.694415	4237.185333	670.588867	438.600067
-7397.694415	4237.185333	669.372070	292.368073
-7397.694415	4237.185333	668.154297	324.041168
-7397.694415	4237.185333	666.936523	351.021423
-7397.694415	4237.185333	665.718750	343.287262
-7397.694415	4237.185333	664.500977	453.253693
-7397.694415	4237.185333	663.282227	269.933228
-7397.694415	4237.185333	662.063477	125.865929
-7397.694415	4237.185333	660.844727	166.400345
-7397.694415	4237.185333	659.625000	216.084137
-7397.694415	4237.185333	658.405273	314.124451
-7397.694415	4237.185333	657.185547	255.248886
-7397.694415	4237.185333	655.965820	249.366623
-7397.694415	4237.185333	654.745117	319.492950
-7397.694415	4237.185333	653.525391	276.603302
-7397.694415	4237.185333	652.303711	242.885864
-7397.694415	4237.185333	651.083008	243.677078
-7397.694415	4237.185333	649.861328	343.441803
-7397.694415	4237.185333	648.640625	203.627670
-7397.694415	4237.185333	647.417969	466.689880
-7397.694415	4237.185333	646.196289	384.329742
-7397.694415	4237.185333	644.973633	368.676910
-7397.694415	4237.185333	643.750977	235.634628
-7397.694415	4237.185333	642.528320	166.994125
-7397.694415	4237.185333	641.305664	174.215591
-7397.694415	4237.185333	640.082031	252.648926
-7397.694415	4237.185333	638.858398	353.976898
-7397.694415	4237.185333	637.634766	360.974243
-7397.694415	4237.185333	636.410156	223.146973
-7397.694415	4237.185333	635.185547	211.671265
-7397.694415	4237.185333	633.960938	321.873657
-7397.694415	4237.185333	632.736328	202.338486
-7397.694415	4237.185333	631.510742	34.581455
-7397.694415	4237.185333	630.285156	238.687195
-7397.694415	4237.185333	629.059570	100.712776
-7397.694415	4237.185333	627.833984	187.590286
-7397.694415	4237.185333	626.607422	189.499390
-7397.694415	4237.185333	625.380859	175.297440
-7397.694415	4237.185333	624.154297	271.108002
-7397.694415	4237.185333	622.927734	353.068268
-7397.694415	4237.185333	621.700195	249.288574
-7397.694415	4237.185333	620.472656	360.897919
-7397.694415	4237.185333	619.245117	529.682129
-7397.694415	4237.185333	618.016602	478.451477
-7397.694415	4237.185333	616.788086	562.301147
-7397.694415	4237.185333	615.559570	758.250366
-7397.694415	4237.185333	614.331055	1082.252808
-7397.694415	4237.185333	613.101563	1321.388428
-7397.694415	4237.185333	611.872070	1985.953735
-7397.694415	4237.185333	610.642578	3064.239502
-7397.694415	4237.185333	609.413086	3627.423096
-7397.694415	4237.185333	608.182617	3822.174316
-7397.694415	4237.185333	606.952148	3246.371826
-7397.694415	4237.185333	605.721680	2378.208008
-7397.694415	4237.185333	604.491211	1693.179810
-7397.694415	4237.185333	603.259766	1006.111816
-7397.694415	4237.185333	602.028320	833.232910
-7397.694415	4237.185333	600.796875	722.044800
-7397.694415	4237.185333	599.564453	704.472046
-7397.694415	4237.185333	598.332031	711.975830
-7397.694415	4237.185333	597.099609	650.970154
-7397.694415	4237.185333	595.867188	516.936462
-7397.694415	4237.185333	594.633789	355.543396
-7397.694415	4237.185333	593.400391	367.521820
-7397.694415	4237.185333	592.166992	327.013458
-7397.694415	4237.185333	590.933594	177.057480
-7397.694415	4237.185333	589.699219	353.072388
-7397.694415	4237.185333	588.464844	212.220993
-7397.694415	4237.185333	587.230469	360.749512
-7397.694415	4237.185333	585.995117	413.512054
-7397.694415	4237.185333	584.760742	347.802979
-7397.694415	4237.185333	583.525391	430.088104
-7397.694415	4237.185333	582.289063	444.017029
-7397.694415	4237.185333	581.053711	314.535675
-7397.694415	4237.185333	579.817383	276.100037
-7397.694415	4237.185333	578.581055	412.829254
-7397.694415	4237.185333	577.343750	260.617493
-7397.694415	4237.185333	576.107422	288.100281
-7397.694415	4237.185333	574.870117	233.702377
-7397.694415	4237.185333	573.631836	-72.996803
-7397.694415	4237.185333	572.394531	-4.610562
-7397.694415	4237.185333	571.156250	-33.969093
-7397.694415	4237.185333	569.917969	127.482521
-7397.694415	4237.185333	568.679688	254.788696
-7397.694415	4237.185333	567.440430	145.884659
-7397.694415	4237.185333	566.202148	152.797897
-7397.694415	4237.185333	564.961914	196.007965
-7397.694415	4237.185333	563.722656	-35.367943
-7397.694415	4237.185333	562.482422	178.003098
-7397.694415	4237.185333	561.243164	5.695533
-7397.694415	4237.185333	560.001953	130.520020
-7397.694415	4237.185333	558.761719	105.660240
-7397.694415	4237.185333	557.520508	-37.059620
-7397.694415	4237.185333	556.279297	307.523987
-7397.694415	4237.185333	555.038086	235.069885
-7397.694415	4237.185333	553.795898	196.628738
-7397.694415	4237.185333	552.554688	198.982056
-7397.694415	4237.185333	551.311523	253.416275
-7397.694415	4237.185333	550.069336	56.561356
-7397.694415	4237.185333	548.826172	208.351044
-7397.694415	4237.185333	547.583984	188.119522
-7397.694415	4237.185333	546.339844	90.986481
-7397.694415	4237.185333	545.096680	312.841461
-7397.694415	4237.185333	543.852539	197.671143
-7397.694415	4237.185333	542.608398	152.661499
-7397.694415	4237.185333	541.364258	112.215599
-7397.694415	4237.185333	540.119141	318.141205
-7397.694415	4237.185333	538.875000	144.422699
-7397.694415	4237.185333	537.628906	76.972191
-7397.694415	4237.185333	536.383789	163.161270
-7397.694415	4237.185333	535.137695	70.961304
-7397.694415	4237.185333	533.892578	107.516617
-7397.694415	4237.185333	532.645508	241.138107
-7397.694415	4237.185333	531.399414	194.219482
-7397.694415	4237.185333	530.152344	14.250892
-7397.694415	4237.185333	528.905273	143.414169
-7397.694415	4237.185333	527.658203	56.077217
-7397.694415	4237.185333	526.410156	-19.907919
-7397.694415	4237.185333	525.163086	-52.982380
-7397.694415	4237.185333	523.914063	51.471092
-7397.694415	4237.185333	522.666016	-98.673119
-7397.694415	4237.185333	521.416992	-158.597260
-7397.694415	4237.185333	520.167969	-137.363953
-7397.694415	4237.185333	518.918945	-80.057526
-7397.694415	4237.185333	517.669922	-81.249573
-7397.694415	4237.185333	516.419922	77.416069
-7397.694415	4237.185333	515.169922	-38.456470
-7397.694415	4237.185333	513.919922	12.264251
-7397.694415	4237.185333	512.668945	-101.172913
-7397.694415	4237.185333	511.417969	-120.047836
-7397.694415	4237.185333	510.166992	-93.880508
-7397.694415	4237.185333	508.916016	-33.939987
-7397.694415	4237.185333	507.664063	-79.583725
-7397.694415	4237.185333	506.412109	-8.298961
-7397.694415	4237.185333	505.160156	-116.683922
-7397.694415	4237.185333	503.907227	-67.737602
-7397.694415	4237.185333	502.655273	12.701204
-7397.694415	4237.185333	501.402344	75.220085
-7397.694415	4237.185333	500.148438	27.809721
-7397.694415	4237.185333	498.895508	18.648407
-7397.694415	4237.185333	497.641602	184.561279
-7397.694415	4237.185333	496.387695	40.949009
-7397.694415	4237.185333	495.132813	-127.188217
-7397.694415	4237.185333	493.878906	61.316460
-7397.694415	4237.185333	492.624023	-93.134338
-7397.694415	4237.185333	491.368164	48.386261
-7397.694415	4237.185333	490.113281	167.527954
-7397.694415	4237.185333	488.857422	-89.633537
-7397.694415	4237.185333	487.601563	-196.541183
-7397.694415	4237.185333	486.344727	180.339478
-7397.694415	4237.185333	485.088867	223.588989
-7397.694415	4237.185333	483.832031	58.757946
-7397.694415	4237.185333	482.575195	189.464386
-7397.694415	4237.185333	481.317383	197.157806
-7397.694415	4237.185333	480.059570	357.036987
-7397.694415	4237.185333	478.801758	452.088501
-7397.694415	4237.185333	477.543945	565.077087
-7397.694415	4237.185333	476.285156	675.873169
-7397.694415	4237.185333	475.027344	630.278137
-7397.694415	4237.185333	473.767578	229.536804
-7397.694415	4237.185333	472.508789	380.819061
-7397.694415	4237.185333	471.249023	261.891907
-7397.694415	4237.185333	469.989258	399.887421
-7397.694415	4237.185333	468.729492	156.176193
-7397.694415	4237.185333	467.469727	97.907951
-7397.694415	4237.185333	466.208984	64.301483
-7397.694415	4237.185333	464.948242	84.340668
-7397.694415	4237.185333	463.686523	-33.829071
-7397.694415	4237.185333	462.425781	64.447639
-7397.694415	4237.185333	461.164063	243.029846
-7397.694415	4237.185333	459.901367	140.764069
-7397.694415	4237.185333	458.639648	207.993347
-7397.694415	4237.185333	457.376953	170.558182
-7397.694415	4237.185333	456.114258	387.162720
-7397.694415	4237.185333	454.851563	287.504272
-7397.694415	4237.185333	453.587891	397.266815
-7397.694415	4237.185333	452.324219	355.680176
-7397.694415	4237.185333	451.060547	327.535950
-7397.694415	4237.185333	449.796875	426.309143
-7397.694415	4237.185333	448.532227	280.390320
-7397.694415	4237.185333	447.267578	321.432251
-7397.694415	4237.185333	446.002930	258.002258
-7397.694415	4237.185333	444.737305	219.114487
-7397.694415	4237.185333	443.471680	144.733582
-7397.694415	4237.185333	442.206055	225.994583
-7397.694415	4237.185333	440.940430	196.178864
-7397.694415	4237.185333	439.673828	159.755035
-7397.694415	4237.185333	438.407227	56.761017
-7397.694415	4237.185333	437.140625	233.611313
-7397.694415	4237.185333	435.873047	86.314034
-7397.694415	4237.185333	434.605469	265.357483
-7397.694415	4237.185333	433.337891	-28.286839
-7397.694415	4237.185333	432.070313	179.578873
-7397.694415	4237.185333	430.801758	-224.792084
-7397.694415	4237.185333	429.533203	11.866926
-7397.694415	4237.185333	428.264648	91.013695
-7397.694415	4237.185333	426.996094	110.270836
-7397.694415	4237.185333	425.726563	-7.887695
-7397.694415	4237.185333	424.457031	17.993113
-7397.694415	4237.185333	423.186523	15.037989
-7397.694415	4237.185333	421.916992	105.059822
-7397.694415	4237.185333	420.646484	206.069458
-7397.694415	4237.185333	419.375977	67.910492
-7397.694415	4237.185333	418.104492	7.211205
-7397.694415	4237.185333	416.833008	156.674011
-7397.694415	4237.185333	415.561523	173.260712
-7397.694415	4237.185333	414.290039	54.838055
-7397.694415	4237.185333	413.017578	0.495689
-7397.694415	4237.185333	411.746094	-62.773540
-7397.694415	4237.185333	410.472656	121.418991
-7397.694415	4237.185333	409.200195	210.381622
-7397.694415	4237.185333	407.926758	135.676300
-7397.694415	4237.185333	406.653320	-73.886391
-7397.694415	4237.185333	405.379883	-3.058356
-7397.694415	4237.185333	404.105469	27.820953
-7397.694415	4237.185333	402.831055	84.989037
-7397.694415	4237.185333	401.556641	-52.277920
-7397.694415	4237.185333	400.282227	-2.151368
-7397.694415	4237.185333	399.006836	-0.806022
-7397.694415	4237.185333	397.731445	331.118561
-7397.694415	4237.185333	396.456055	175.336334
-7397.694415	4237.185333	395.179688	89.893364
-7397.694415	4237.185333	393.903320	165.094589
-7397.694415	4237.185333	392.626953	-20.061260
-7397.694415	4237.185333	391.350586	109.584267
-7397.694415	4237.185333	390.073242	174.958145
-7397.694415	4237.185333	388.795898	50.564522
-7397.694415	4237.185333	387.518555	97.580849
-7397.694415	4237.185333	386.240234	166.193451
-7397.694415	4237.185333	384.961914	137.533646
-7397.694415	4237.185333	383.683594	218.465805
-7397.694415	4237.185333	382.405273	81.136978
-7397.694415	4237.185333	381.125977	62.151859
-7397.694415	4237.185333	379.846680	62.469933
-7397.694415	4237.185333	378.567383	24.900610
-7397.694415	4237.185333	377.287109	-54.954334
-7397.694415	4237.185333	376.006836	-62.825546
-7397.694415	4237.185333	374.726563	93.487183
-7397.694415	4237.185333	373.446289	36.071144
-7397.694415	4237.185333	372.165039	61.481823
-7397.694415	4237.185333	370.883789	167.451660
-7397.694415	4237.185333	369.602539	-60.946701
-7397.694415	4237.185333	368.320313	-41.993347
-7397.694415	4237.185333	367.039063	-100.571465
-7397.694415	4237.185333	365.755859	63.822685
-7397.694415	4237.185333	364.473633	-79.671173
-7397.694415	4237.185333	363.190430	76.435921
-7397.694415	4237.185333	361.907227	97.895767
-7397.694415	4237.185333	360.624023	2.296601
-7397.694415	4237.185333	359.340820	6.605806
-7397.694415	4237.185333	358.056641	14.321341
-7397.694415	4237.185333	356.772461	-31.524178
-7397.694415	4237.185333	355.487305	72.694901
-7397.694415	4237.185333	354.202148	26.936787
-7397.694415	4237.185333	352.916992	30.438238
-7397.694415	4237.185333	351.631836	-28.471041
-7397.694415	4237.185333	350.346680	108.370827
-7397.694415	4237.185333	349.060547	-42.621201
-7397.694415	4237.185333	347.774414	-30.790854
-7397.694415	4237.185333	346.487305	54.052341
-7397.694415	4237.185333	345.200195	111.287262
-7397.694415	4237.185333	343.913086	-173.809647
-7397.694415	4237.185333	342.625977	-123.728500
-7397.694415	4237.185333	341.338867	-77.323631
-7397.694415	4237.185333	340.050781	113.843086
-7397.694415	4237.185333	338.762695	-94.036659
-7397.694415	4237.185333	337.473633	-41.503834
-7397.694415	4237.185333	336.184570	177.398071
-7397.694415	4237.185333	334.895508	8.264647
-7397.694415	4237.185333	333.606445	-188.737305
-7397.694415	4237.185333	332.317383	-66.844398
-7397.694415	4237.185333	331.027344	74.896271
-7397.694415	4237.185333	329.736328	-136.396149
-7397.694415	4237.185333	328.446289	-79.257347
-7397.694415	4237.185333	327.155273	-15.505951
-7397.694415	4237.185333	325.864258	-58.460171
-7397.694415	4237.185333	324.573242	-68.700485
-7397.694415	4237.185333	323.281250	-35.465336
-7397.694415	4237.185333	321.989258	-85.087593
-7397.694415	4237.185333	320.697266	-21.660280
-7397.694415	4237.185333	319.405273	143.795578
-7397.694415	4237.185333	318.112305	-167.691452
-7397.694415	4237.185333	316.819336	31.810110
-7397.694415	4237.185333	315.526367	89.414886
-7397.694415	4237.185333	314.232422	83.368996
-7397.694415	4237.185333	312.938477	37.611263
-7397.694415	4237.185333	311.644531	52.074352
-7397.694415	4237.185333	310.349609	50.524002
-7397.694415	4237.185333	309.054688	52.509155
-7397.694415	4237.185333	307.759766	-91.924728
-7397.694415	4237.185333	306.464844	86.307365
-7397.694415	4237.185333	305.168945	28.856249
-7397.694415	4237.185333	303.873047	33.245377
-7397.694415	4237.185333	302.577148	3.861712
-7397.694415	4237.185333	301.281250	294.304535
-7397.694415	4237.185333	299.984375	147.126923
