#X		#Y		#Wave		#Intensity
-7453.126862	4231.309333	1999.946289	92.861320
-7453.126862	4231.309333	1998.981445	218.906708
-7453.126862	4231.309333	1998.017578	103.123825
-7453.126862	4231.309333	1997.052734	59.550354
-7453.126862	4231.309333	1996.088867	60.897381
-7453.126862	4231.309333	1995.124023	183.912079
-7453.126862	4231.309333	1994.159180	96.645020
-7453.126862	4231.309333	1993.193359	-15.080033
-7453.126862	4231.309333	1992.228516	-29.928867
-7453.126862	4231.309333	1991.262695	-136.100754
-7453.126862	4231.309333	1990.296875	-81.107353
-7453.126862	4231.309333	1989.331055	204.240906
-7453.126862	4231.309333	1988.365234	138.423706
-7453.126862	4231.309333	1987.398438	154.491653
-7453.126862	4231.309333	1986.432617	215.305817
-7453.126862	4231.309333	1985.465820	140.326889
-7453.126862	4231.309333	1984.499023	-104.982056
-7453.126862	4231.309333	1983.532227	-110.230621
-7453.126862	4231.309333	1982.565430	75.015640
-7453.126862	4231.309333	1981.597656	248.039749
-7453.126862	4231.309333	1980.629883	-60.514050
-7453.126862	4231.309333	1979.662109	-10.631927
-7453.126862	4231.309333	1978.694336	-29.723745
-7453.126862	4231.309333	1977.726563	72.349556
-7453.126862	4231.309333	1976.758789	-195.710373
-7453.126862	4231.309333	1975.790039	126.353859
-7453.126862	4231.309333	1974.821289	115.345062
-7453.126862	4231.309333	1973.852539	23.086266
-7453.126862	4231.309333	1972.883789	76.550003
-7453.126862	4231.309333	1971.915039	-116.473709
-7453.126862	4231.309333	1970.945313	-20.790707
-7453.126862	4231.309333	1969.975586	-127.152260
-7453.126862	4231.309333	1969.005859	35.326622
-7453.126862	4231.309333	1968.036133	5.658969
-7453.126862	4231.309333	1967.066406	87.005341
-7453.126862	4231.309333	1966.096680	175.836929
-7453.126862	4231.309333	1965.125977	134.216415
-7453.126862	4231.309333	1964.155273	-40.248470
-7453.126862	4231.309333	1963.184570	46.442059
-7453.126862	4231.309333	1962.213867	-63.719975
-7453.126862	4231.309333	1961.242188	23.155005
-7453.126862	4231.309333	1960.271484	-153.197571
-7453.126862	4231.309333	1959.299805	10.125825
-7453.126862	4231.309333	1958.328125	43.111637
-7453.126862	4231.309333	1957.356445	24.529629
-7453.126862	4231.309333	1956.384766	-45.597443
-7453.126862	4231.309333	1955.412109	4.847546
-7453.126862	4231.309333	1954.439453	43.061920
-7453.126862	4231.309333	1953.467773	-56.283615
-7453.126862	4231.309333	1952.495117	247.434906
-7453.126862	4231.309333	1951.521484	-6.532619
-7453.126862	4231.309333	1950.548828	-85.956627
-7453.126862	4231.309333	1949.575195	11.519900
-7453.126862	4231.309333	1948.601563	-11.284678
-7453.126862	4231.309333	1947.627930	34.708672
-7453.126862	4231.309333	1946.654297	39.014599
-7453.126862	4231.309333	1945.680664	-8.159804
-7453.126862	4231.309333	1944.706055	15.881144
-7453.126862	4231.309333	1943.732422	12.974095
-7453.126862	4231.309333	1942.757813	110.663780
-7453.126862	4231.309333	1941.783203	102.920952
-7453.126862	4231.309333	1940.807617	-7.745813
-7453.126862	4231.309333	1939.833008	-79.119095
-7453.126862	4231.309333	1938.857422	52.970394
-7453.126862	4231.309333	1937.881836	-3.622736
-7453.126862	4231.309333	1936.906250	3.526902
-7453.126862	4231.309333	1935.930664	42.539089
-7453.126862	4231.309333	1934.955078	84.009247
-7453.126862	4231.309333	1933.978516	115.693588
-7453.126862	4231.309333	1933.001953	34.781822
-7453.126862	4231.309333	1932.025391	24.893927
-7453.126862	4231.309333	1931.048828	-122.007294
-7453.126862	4231.309333	1930.072266	-14.401348
-7453.126862	4231.309333	1929.094727	88.285683
-7453.126862	4231.309333	1928.118164	49.096485
-7453.126862	4231.309333	1927.140625	41.717087
-7453.126862	4231.309333	1926.163086	73.462410
-7453.126862	4231.309333	1925.184570	-41.453766
-7453.126862	4231.309333	1924.207031	-48.799164
-7453.126862	4231.309333	1923.228516	14.716950
-7453.126862	4231.309333	1922.250000	-26.835470
-7453.126862	4231.309333	1921.271484	97.709976
-7453.126862	4231.309333	1920.292969	70.801941
-7453.126862	4231.309333	1919.314453	-83.059105
-7453.126862	4231.309333	1918.334961	114.643639
-7453.126862	4231.309333	1917.355469	75.525253
-7453.126862	4231.309333	1916.375977	136.458405
-7453.126862	4231.309333	1915.396484	-83.207657
-7453.126862	4231.309333	1914.416992	41.129284
-7453.126862	4231.309333	1913.436523	45.906086
-7453.126862	4231.309333	1912.457031	214.033386
-7453.126862	4231.309333	1911.476563	-7.977081
-7453.126862	4231.309333	1910.496094	74.755737
-7453.126862	4231.309333	1909.515625	-49.702858
-7453.126862	4231.309333	1908.534180	-217.990158
-7453.126862	4231.309333	1907.552734	-67.112633
-7453.126862	4231.309333	1906.572266	3.311035
-7453.126862	4231.309333	1905.590820	-143.040451
-7453.126862	4231.309333	1904.608398	-143.278458
-7453.126862	4231.309333	1903.626953	21.985834
-7453.126862	4231.309333	1902.644531	38.704533
-7453.126862	4231.309333	1901.663086	-71.144508
-7453.126862	4231.309333	1900.680664	-61.767433
-7453.126862	4231.309333	1899.698242	64.333595
-7453.126862	4231.309333	1898.714844	73.626839
-7453.126862	4231.309333	1897.732422	-92.183929
-7453.126862	4231.309333	1896.749023	-2.700482
-7453.126862	4231.309333	1895.765625	132.899475
-7453.126862	4231.309333	1894.782227	-18.338804
-7453.126862	4231.309333	1893.798828	-52.928661
-7453.126862	4231.309333	1892.814453	-17.089367
-7453.126862	4231.309333	1891.831055	-61.448639
-7453.126862	4231.309333	1890.846680	90.871017
-7453.126862	4231.309333	1889.862305	-94.375153
-7453.126862	4231.309333	1888.877930	67.533066
-7453.126862	4231.309333	1887.892578	49.750347
-7453.126862	4231.309333	1886.908203	143.556671
-7453.126862	4231.309333	1885.922852	-7.739053
-7453.126862	4231.309333	1884.937500	98.098198
-7453.126862	4231.309333	1883.952148	140.805344
-7453.126862	4231.309333	1882.965820	59.798710
-7453.126862	4231.309333	1881.980469	3.025745
-7453.126862	4231.309333	1880.994141	62.578289
-7453.126862	4231.309333	1880.007813	90.566658
-7453.126862	4231.309333	1879.021484	-109.245758
-7453.126862	4231.309333	1878.035156	153.659302
-7453.126862	4231.309333	1877.047852	-63.123196
-7453.126862	4231.309333	1876.061523	158.428955
-7453.126862	4231.309333	1875.074219	-72.879845
-7453.126862	4231.309333	1874.086914	-40.296368
-7453.126862	4231.309333	1873.098633	89.039864
-7453.126862	4231.309333	1872.111328	82.783310
-7453.126862	4231.309333	1871.123047	124.873833
-7453.126862	4231.309333	1870.135742	-123.349327
-7453.126862	4231.309333	1869.147461	-25.698402
-7453.126862	4231.309333	1868.158203	86.382057
-7453.126862	4231.309333	1867.169922	116.186638
-7453.126862	4231.309333	1866.180664	-127.182030
-7453.126862	4231.309333	1865.192383	124.887238
-7453.126862	4231.309333	1864.203125	2.328968
-7453.126862	4231.309333	1863.213867	-112.979935
-7453.126862	4231.309333	1862.223633	-76.131439
-7453.126862	4231.309333	1861.234375	45.175488
-7453.126862	4231.309333	1860.244141	-5.017488
-7453.126862	4231.309333	1859.253906	19.593510
-7453.126862	4231.309333	1858.263672	268.595428
-7453.126862	4231.309333	1857.273438	51.771511
-7453.126862	4231.309333	1856.282227	-37.153961
-7453.126862	4231.309333	1855.291992	-3.076673
-7453.126862	4231.309333	1854.300781	-67.927048
-7453.126862	4231.309333	1853.309570	-127.973175
-7453.126862	4231.309333	1852.317383	19.274740
-7453.126862	4231.309333	1851.326172	-74.592285
-7453.126862	4231.309333	1850.333984	-11.834081
-7453.126862	4231.309333	1849.342773	48.451115
-7453.126862	4231.309333	1848.350586	173.708405
-7453.126862	4231.309333	1847.357422	156.782562
-7453.126862	4231.309333	1846.365234	101.295319
-7453.126862	4231.309333	1845.372070	178.198410
-7453.126862	4231.309333	1844.379883	-50.658699
-7453.126862	4231.309333	1843.386719	-46.035351
-7453.126862	4231.309333	1842.393555	66.819481
-7453.126862	4231.309333	1841.399414	203.647171
-7453.126862	4231.309333	1840.406250	27.707714
-7453.126862	4231.309333	1839.412109	44.173100
-7453.126862	4231.309333	1838.417969	127.912712
-7453.126862	4231.309333	1837.423828	209.176773
-7453.126862	4231.309333	1836.429688	83.678413
-7453.126862	4231.309333	1835.434570	-92.274773
-7453.126862	4231.309333	1834.440430	22.500544
-7453.126862	4231.309333	1833.445313	48.317551
-7453.126862	4231.309333	1832.450195	86.093750
-7453.126862	4231.309333	1831.454102	133.419815
-7453.126862	4231.309333	1830.458984	39.051670
-7453.126862	4231.309333	1829.462891	95.893036
-7453.126862	4231.309333	1828.466797	157.474869
-7453.126862	4231.309333	1827.470703	125.421478
-7453.126862	4231.309333	1826.474609	-21.802013
-7453.126862	4231.309333	1825.478516	75.630859
-7453.126862	4231.309333	1824.481445	0.335953
-7453.126862	4231.309333	1823.484375	150.398132
-7453.126862	4231.309333	1822.487305	-6.455740
-7453.126862	4231.309333	1821.490234	57.200424
-7453.126862	4231.309333	1820.493164	89.647217
-7453.126862	4231.309333	1819.495117	86.108727
-7453.126862	4231.309333	1818.498047	-8.480491
-7453.126862	4231.309333	1817.500000	-26.438200
-7453.126862	4231.309333	1816.500977	39.377430
-7453.126862	4231.309333	1815.502930	227.223404
-7453.126862	4231.309333	1814.504883	-135.526810
-7453.126862	4231.309333	1813.505859	64.176903
-7453.126862	4231.309333	1812.506836	206.351440
-7453.126862	4231.309333	1811.507813	-101.273384
-7453.126862	4231.309333	1810.508789	172.351624
-7453.126862	4231.309333	1809.508789	32.165115
-7453.126862	4231.309333	1808.508789	241.045456
-7453.126862	4231.309333	1807.508789	-30.630054
-7453.126862	4231.309333	1806.508789	156.611588
-7453.126862	4231.309333	1805.508789	193.219955
-7453.126862	4231.309333	1804.508789	-4.329027
-7453.126862	4231.309333	1803.507813	220.921707
-7453.126862	4231.309333	1802.506836	-76.917862
-7453.126862	4231.309333	1801.505859	114.775681
-7453.126862	4231.309333	1800.504883	158.365982
-7453.126862	4231.309333	1799.502930	256.802155
-7453.126862	4231.309333	1798.501953	37.808071
-7453.126862	4231.309333	1797.500000	100.385147
-7453.126862	4231.309333	1796.498047	170.067368
-7453.126862	4231.309333	1795.496094	122.836555
-7453.126862	4231.309333	1794.493164	51.750099
-7453.126862	4231.309333	1793.491211	6.888585
-7453.126862	4231.309333	1792.488281	74.040268
-7453.126862	4231.309333	1791.485352	-59.037083
-7453.126862	4231.309333	1790.482422	79.526031
-7453.126862	4231.309333	1789.478516	158.455841
-7453.126862	4231.309333	1788.475586	-24.655107
-7453.126862	4231.309333	1787.471680	20.875729
-7453.126862	4231.309333	1786.467773	28.272058
-7453.126862	4231.309333	1785.463867	-140.504822
-7453.126862	4231.309333	1784.459961	-97.431107
-7453.126862	4231.309333	1783.455078	-9.190861
-7453.126862	4231.309333	1782.450195	131.330338
-7453.126862	4231.309333	1781.445313	-153.983368
-7453.126862	4231.309333	1780.440430	-82.498787
-7453.126862	4231.309333	1779.435547	34.111561
-7453.126862	4231.309333	1778.429688	-182.152878
-7453.126862	4231.309333	1777.424805	-53.728401
-7453.126862	4231.309333	1776.418945	-6.169249
-7453.126862	4231.309333	1775.413086	126.880348
-7453.126862	4231.309333	1774.406250	119.707825
-7453.126862	4231.309333	1773.400391	117.270599
-7453.126862	4231.309333	1772.393555	10.334587
-7453.126862	4231.309333	1771.386719	45.860115
-7453.126862	4231.309333	1770.379883	-18.336054
-7453.126862	4231.309333	1769.373047	-101.512367
-7453.126862	4231.309333	1768.365234	76.314804
-7453.126862	4231.309333	1767.358398	140.192917
-7453.126862	4231.309333	1766.350586	99.667931
-7453.126862	4231.309333	1765.342773	-83.139549
-7453.126862	4231.309333	1764.334961	18.610662
-7453.126862	4231.309333	1763.326172	167.710693
-7453.126862	4231.309333	1762.318359	27.602667
-7453.126862	4231.309333	1761.309570	129.220108
-7453.126862	4231.309333	1760.300781	-46.397366
-7453.126862	4231.309333	1759.291016	83.583305
-7453.126862	4231.309333	1758.282227	87.990120
-7453.126862	4231.309333	1757.272461	33.184208
-7453.126862	4231.309333	1756.262695	210.376114
-7453.126862	4231.309333	1755.252930	115.302505
-7453.126862	4231.309333	1754.243164	-90.967934
-7453.126862	4231.309333	1753.233398	-131.559875
-7453.126862	4231.309333	1752.222656	7.622360
-7453.126862	4231.309333	1751.211914	66.327469
-7453.126862	4231.309333	1750.201172	325.985443
-7453.126862	4231.309333	1749.190430	-102.424843
-7453.126862	4231.309333	1748.179688	-117.042755
-7453.126862	4231.309333	1747.167969	-124.581253
-7453.126862	4231.309333	1746.156250	14.362700
-7453.126862	4231.309333	1745.144531	115.444687
-7453.126862	4231.309333	1744.132813	77.128891
-7453.126862	4231.309333	1743.121094	27.008396
-7453.126862	4231.309333	1742.108398	-6.579042
-7453.126862	4231.309333	1741.095703	61.338009
-7453.126862	4231.309333	1740.083008	1.775475
-7453.126862	4231.309333	1739.070313	215.940689
-7453.126862	4231.309333	1738.057617	-98.435570
-7453.126862	4231.309333	1737.043945	59.037144
-7453.126862	4231.309333	1736.030273	107.960167
-7453.126862	4231.309333	1735.016602	-177.951355
-7453.126862	4231.309333	1734.002930	-197.380737
-7453.126862	4231.309333	1732.989258	2.381322
-7453.126862	4231.309333	1731.974609	-71.292358
-7453.126862	4231.309333	1730.959961	-93.112915
-7453.126862	4231.309333	1729.945313	115.912125
-7453.126862	4231.309333	1728.930664	-51.965969
-7453.126862	4231.309333	1727.916016	15.678860
-7453.126862	4231.309333	1726.900391	36.204769
-7453.126862	4231.309333	1725.885742	-75.090050
-7453.126862	4231.309333	1724.870117	86.631531
-7453.126862	4231.309333	1723.853516	144.757462
-7453.126862	4231.309333	1722.837891	19.371111
-7453.126862	4231.309333	1721.822266	11.626520
-7453.126862	4231.309333	1720.805664	-57.262714
-7453.126862	4231.309333	1719.789063	-6.225482
-7453.126862	4231.309333	1718.772461	-133.858185
-7453.126862	4231.309333	1717.754883	109.875008
-7453.126862	4231.309333	1716.738281	-34.185665
-7453.126862	4231.309333	1715.720703	70.823212
-7453.126862	4231.309333	1714.703125	171.090927
-7453.126862	4231.309333	1713.685547	196.169479
-7453.126862	4231.309333	1712.667969	-29.988701
-7453.126862	4231.309333	1711.649414	143.000839
-7453.126862	4231.309333	1710.630859	137.550034
-7453.126862	4231.309333	1709.612305	272.892517
-7453.126862	4231.309333	1708.593750	56.266857
-7453.126862	4231.309333	1707.575195	36.757252
-7453.126862	4231.309333	1706.555664	289.295044
-7453.126862	4231.309333	1705.536133	171.262894
-7453.126862	4231.309333	1704.516602	-47.528458
-7453.126862	4231.309333	1703.497070	129.874390
-7453.126862	4231.309333	1702.477539	-4.462919
-7453.126862	4231.309333	1701.457031	86.172226
-7453.126862	4231.309333	1700.437500	139.295761
-7453.126862	4231.309333	1699.416992	218.158829
-7453.126862	4231.309333	1698.395508	184.591736
-7453.126862	4231.309333	1697.375000	186.160217
-7453.126862	4231.309333	1696.354492	51.967503
-7453.126862	4231.309333	1695.333008	175.254501
-7453.126862	4231.309333	1694.311523	127.688950
-7453.126862	4231.309333	1693.290039	215.825775
-7453.126862	4231.309333	1692.267578	95.766251
-7453.126862	4231.309333	1691.246094	254.035049
-7453.126862	4231.309333	1690.223633	213.510284
-7453.126862	4231.309333	1689.201172	308.584290
-7453.126862	4231.309333	1688.178711	254.049286
-7453.126862	4231.309333	1687.155273	307.021210
-7453.126862	4231.309333	1686.132813	352.970947
-7453.126862	4231.309333	1685.109375	454.963226
-7453.126862	4231.309333	1684.085938	272.010437
-7453.126862	4231.309333	1683.062500	336.628387
-7453.126862	4231.309333	1682.039063	219.142532
-7453.126862	4231.309333	1681.014648	241.740097
-7453.126862	4231.309333	1679.990234	156.992081
-7453.126862	4231.309333	1678.965820	440.907471
-7453.126862	4231.309333	1677.941406	251.196426
-7453.126862	4231.309333	1676.916992	399.728271
-7453.126862	4231.309333	1675.891602	464.264587
-7453.126862	4231.309333	1674.866211	372.586182
-7453.126862	4231.309333	1673.840820	437.114227
-7453.126862	4231.309333	1672.815430	431.712158
-7453.126862	4231.309333	1671.790039	677.950500
-7453.126862	4231.309333	1670.763672	532.747009
-7453.126862	4231.309333	1669.737305	573.926575
-7453.126862	4231.309333	1668.710938	752.484436
-7453.126862	4231.309333	1667.684570	863.464783
-7453.126862	4231.309333	1666.658203	732.331604
-7453.126862	4231.309333	1665.630859	375.512512
-7453.126862	4231.309333	1664.603516	509.789337
-7453.126862	4231.309333	1663.576172	569.580200
-7453.126862	4231.309333	1662.548828	424.678284
-7453.126862	4231.309333	1661.520508	484.475067
-7453.126862	4231.309333	1660.493164	414.063141
-7453.126862	4231.309333	1659.464844	287.894226
-7453.126862	4231.309333	1658.436523	301.228638
-7453.126862	4231.309333	1657.408203	226.268616
-7453.126862	4231.309333	1656.378906	402.247589
-7453.126862	4231.309333	1655.350586	401.644653
-7453.126862	4231.309333	1654.321289	229.198853
-7453.126862	4231.309333	1653.291992	509.587341
-7453.126862	4231.309333	1652.261719	629.699768
-7453.126862	4231.309333	1651.232422	647.656799
-7453.126862	4231.309333	1650.202148	456.771698
-7453.126862	4231.309333	1649.171875	444.613220
-7453.126862	4231.309333	1648.141602	321.130768
-7453.126862	4231.309333	1647.111328	554.854797
-7453.126862	4231.309333	1646.080078	528.802856
-7453.126862	4231.309333	1645.049805	474.956970
-7453.126862	4231.309333	1644.018555	608.881409
-7453.126862	4231.309333	1642.987305	640.803040
-7453.126862	4231.309333	1641.955078	624.066772
-7453.126862	4231.309333	1640.923828	572.605469
-7453.126862	4231.309333	1639.891602	595.285400
-7453.126862	4231.309333	1638.859375	745.323669
-7453.126862	4231.309333	1637.827148	791.138306
-7453.126862	4231.309333	1636.794922	1001.287109
-7453.126862	4231.309333	1635.761719	1049.370972
-7453.126862	4231.309333	1634.729492	1106.707275
-7453.126862	4231.309333	1633.696289	1184.851074
-7453.126862	4231.309333	1632.662109	1223.657837
-7453.126862	4231.309333	1631.628906	1243.966675
-7453.126862	4231.309333	1630.594727	1407.619629
-7453.126862	4231.309333	1629.561523	1605.898926
-7453.126862	4231.309333	1628.527344	1524.473755
-7453.126862	4231.309333	1627.493164	1535.520264
-7453.126862	4231.309333	1626.458008	1461.098022
-7453.126862	4231.309333	1625.423828	1444.464844
-7453.126862	4231.309333	1624.388672	1245.418091
-7453.126862	4231.309333	1623.353516	1051.081909
-7453.126862	4231.309333	1622.318359	979.180847
-7453.126862	4231.309333	1621.282227	928.090454
-7453.126862	4231.309333	1620.247070	950.878723
-7453.126862	4231.309333	1619.210938	856.012207
-7453.126862	4231.309333	1618.174805	811.943848
-7453.126862	4231.309333	1617.137695	1016.967163
-7453.126862	4231.309333	1616.101563	1039.781860
-7453.126862	4231.309333	1615.064453	799.805725
-7453.126862	4231.309333	1614.027344	857.256409
-7453.126862	4231.309333	1612.990234	783.354797
-7453.126862	4231.309333	1611.953125	969.837280
-7453.126862	4231.309333	1610.916016	743.950256
-7453.126862	4231.309333	1609.877930	918.884583
-7453.126862	4231.309333	1608.839844	902.658691
-7453.126862	4231.309333	1607.801758	1201.842041
-7453.126862	4231.309333	1606.763672	1015.282349
-7453.126862	4231.309333	1605.724609	1008.303711
-7453.126862	4231.309333	1604.685547	824.188843
-7453.126862	4231.309333	1603.646484	934.601074
-7453.126862	4231.309333	1602.607422	964.494690
-7453.126862	4231.309333	1601.568359	1210.537720
-7453.126862	4231.309333	1600.528320	987.518127
-7453.126862	4231.309333	1599.489258	847.351807
-7453.126862	4231.309333	1598.449219	1178.357544
-7453.126862	4231.309333	1597.408203	1153.122437
-7453.126862	4231.309333	1596.368164	1059.005737
-7453.126862	4231.309333	1595.327148	1190.019653
-7453.126862	4231.309333	1594.287109	1238.339722
-7453.126862	4231.309333	1593.246094	1247.629517
-7453.126862	4231.309333	1592.204102	1188.074097
-7453.126862	4231.309333	1591.163086	1064.306641
-7453.126862	4231.309333	1590.121094	1291.658081
-7453.126862	4231.309333	1589.079102	1273.482178
-7453.126862	4231.309333	1588.037109	1159.005615
-7453.126862	4231.309333	1586.995117	1198.233643
-7453.126862	4231.309333	1585.953125	1028.834229
-7453.126862	4231.309333	1584.910156	1068.113159
-7453.126862	4231.309333	1583.867188	1020.310913
-7453.126862	4231.309333	1582.824219	1075.658081
-7453.126862	4231.309333	1581.781250	1046.243774
-7453.126862	4231.309333	1580.737305	1012.279968
-7453.126862	4231.309333	1579.693359	937.133118
-7453.126862	4231.309333	1578.649414	976.514282
-7453.126862	4231.309333	1577.605469	917.472473
-7453.126862	4231.309333	1576.561523	1119.379883
-7453.126862	4231.309333	1575.516602	987.154724
-7453.126862	4231.309333	1574.472656	1003.709106
-7453.126862	4231.309333	1573.427734	969.959412
-7453.126862	4231.309333	1572.381836	1160.353149
-7453.126862	4231.309333	1571.336914	1021.459412
-7453.126862	4231.309333	1570.291016	852.924316
-7453.126862	4231.309333	1569.246094	835.322693
-7453.126862	4231.309333	1568.200195	808.611267
-7453.126862	4231.309333	1567.153320	754.517761
-7453.126862	4231.309333	1566.107422	716.460754
-7453.126862	4231.309333	1565.060547	637.335510
-7453.126862	4231.309333	1564.013672	695.260071
-7453.126862	4231.309333	1562.966797	830.802856
-7453.126862	4231.309333	1561.919922	801.988525
-7453.126862	4231.309333	1560.872070	629.449463
-7453.126862	4231.309333	1559.825195	703.401733
-7453.126862	4231.309333	1558.777344	576.620850
-7453.126862	4231.309333	1557.729492	908.308655
-7453.126862	4231.309333	1556.680664	886.472656
-7453.126862	4231.309333	1555.632813	853.274963
-7453.126862	4231.309333	1554.583984	972.822388
-7453.126862	4231.309333	1553.535156	773.322510
-7453.126862	4231.309333	1552.486328	1095.662231
-7453.126862	4231.309333	1551.436523	1171.891113
-7453.126862	4231.309333	1550.387695	993.047058
-7453.126862	4231.309333	1549.337891	1078.427612
-7453.126862	4231.309333	1548.288086	1018.105225
-7453.126862	4231.309333	1547.238281	1112.606689
-7453.126862	4231.309333	1546.187500	1207.097778
-7453.126862	4231.309333	1545.136719	1149.141479
-7453.126862	4231.309333	1544.086914	1107.161865
-7453.126862	4231.309333	1543.035156	1433.657715
-7453.126862	4231.309333	1541.984375	1537.218262
-7453.126862	4231.309333	1540.933594	1588.478516
-7453.126862	4231.309333	1539.881836	1910.226685
-7453.126862	4231.309333	1538.830078	1870.549683
-7453.126862	4231.309333	1537.778320	2058.121582
-7453.126862	4231.309333	1536.725586	1766.342163
-7453.126862	4231.309333	1535.673828	1844.904419
-7453.126862	4231.309333	1534.621094	1521.550293
-7453.126862	4231.309333	1533.568359	1311.865601
-7453.126862	4231.309333	1532.515625	1365.590576
-7453.126862	4231.309333	1531.461914	997.223877
-7453.126862	4231.309333	1530.409180	928.528687
-7453.126862	4231.309333	1529.355469	789.568237
-7453.126862	4231.309333	1528.301758	1097.490845
-7453.126862	4231.309333	1527.247070	772.672974
-7453.126862	4231.309333	1526.193359	801.683350
-7453.126862	4231.309333	1525.138672	694.712341
-7453.126862	4231.309333	1524.083984	741.917969
-7453.126862	4231.309333	1523.029297	535.370605
-7453.126862	4231.309333	1521.974609	462.588928
-7453.126862	4231.309333	1520.918945	555.203552
-7453.126862	4231.309333	1519.863281	455.337128
-7453.126862	4231.309333	1518.807617	421.196808
-7453.126862	4231.309333	1517.751953	319.196808
-7453.126862	4231.309333	1516.696289	364.369446
-7453.126862	4231.309333	1515.639648	454.808350
-7453.126862	4231.309333	1514.583008	488.689728
-7453.126862	4231.309333	1513.526367	613.059631
-7453.126862	4231.309333	1512.469727	531.635010
-7453.126862	4231.309333	1511.412109	701.230164
-7453.126862	4231.309333	1510.355469	696.739197
-7453.126862	4231.309333	1509.297852	554.427612
-7453.126862	4231.309333	1508.240234	678.825867
-7453.126862	4231.309333	1507.181641	631.520020
-7453.126862	4231.309333	1506.124023	557.163635
-7453.126862	4231.309333	1505.065430	645.457947
-7453.126862	4231.309333	1504.006836	684.080750
-7453.126862	4231.309333	1502.948242	729.495178
-7453.126862	4231.309333	1501.888672	777.181885
-7453.126862	4231.309333	1500.830078	689.502075
-7453.126862	4231.309333	1499.770508	714.686646
-7453.126862	4231.309333	1498.710938	606.824402
-7453.126862	4231.309333	1497.650391	751.601318
-7453.126862	4231.309333	1496.590820	808.427124
-7453.126862	4231.309333	1495.530273	745.797607
-7453.126862	4231.309333	1494.469727	674.212585
-7453.126862	4231.309333	1493.409180	751.404602
-7453.126862	4231.309333	1492.348633	542.497803
-7453.126862	4231.309333	1491.287109	554.438110
-7453.126862	4231.309333	1490.225586	480.838379
-7453.126862	4231.309333	1489.164063	504.115784
-7453.126862	4231.309333	1488.102539	626.462830
-7453.126862	4231.309333	1487.041016	674.529907
-7453.126862	4231.309333	1485.978516	598.857849
-7453.126862	4231.309333	1484.916016	689.696228
-7453.126862	4231.309333	1483.853516	512.942505
-7453.126862	4231.309333	1482.791016	543.147583
-7453.126862	4231.309333	1481.727539	436.231293
-7453.126862	4231.309333	1480.664063	333.897125
-7453.126862	4231.309333	1479.600586	337.254486
-7453.126862	4231.309333	1478.537109	488.940247
-7453.126862	4231.309333	1477.473633	485.631195
-7453.126862	4231.309333	1476.409180	212.890915
-7453.126862	4231.309333	1475.344727	393.781036
-7453.126862	4231.309333	1474.280273	363.620087
-7453.126862	4231.309333	1473.215820	398.648315
-7453.126862	4231.309333	1472.151367	373.113861
-7453.126862	4231.309333	1471.085938	399.142914
-7453.126862	4231.309333	1470.020508	573.365356
-7453.126862	4231.309333	1468.955078	509.632874
-7453.126862	4231.309333	1467.888672	596.382202
-7453.126862	4231.309333	1466.823242	351.357208
-7453.126862	4231.309333	1465.756836	456.100433
-7453.126862	4231.309333	1464.690430	576.246460
-7453.126862	4231.309333	1463.624023	517.413452
-7453.126862	4231.309333	1462.556641	418.430145
-7453.126862	4231.309333	1461.490234	682.116028
-7453.126862	4231.309333	1460.422852	442.347046
-7453.126862	4231.309333	1459.355469	365.965607
-7453.126862	4231.309333	1458.287109	385.928406
-7453.126862	4231.309333	1457.219727	360.975586
-7453.126862	4231.309333	1456.151367	281.713867
-7453.126862	4231.309333	1455.083008	413.364380
-7453.126862	4231.309333	1454.014648	482.552216
-7453.126862	4231.309333	1452.945313	506.594513
-7453.126862	4231.309333	1451.876953	393.060242
-7453.126862	4231.309333	1450.807617	350.551514
-7453.126862	4231.309333	1449.738281	240.988510
-7453.126862	4231.309333	1448.668945	198.905502
-7453.126862	4231.309333	1447.598633	330.860046
-7453.126862	4231.309333	1446.528320	351.652130
-7453.126862	4231.309333	1445.458008	332.374573
-7453.126862	4231.309333	1444.387695	137.126007
-7453.126862	4231.309333	1443.317383	362.959229
-7453.126862	4231.309333	1442.246094	104.463219
-7453.126862	4231.309333	1441.174805	345.526672
-7453.126862	4231.309333	1440.103516	-8.535984
-7453.126862	4231.309333	1439.032227	111.165932
-7453.126862	4231.309333	1437.960938	-60.477928
-7453.126862	4231.309333	1436.888672	74.703667
-7453.126862	4231.309333	1435.816406	-38.400833
-7453.126862	4231.309333	1434.744141	-64.115631
-7453.126862	4231.309333	1433.670898	-26.708860
-7453.126862	4231.309333	1432.598633	-95.371735
-7453.126862	4231.309333	1431.525391	11.510885
-7453.126862	4231.309333	1430.452148	-5.384661
-7453.126862	4231.309333	1429.378906	-20.828876
-7453.126862	4231.309333	1428.304688	55.663216
-7453.126862	4231.309333	1427.231445	31.959589
-7453.126862	4231.309333	1426.157227	-136.947311
-7453.126862	4231.309333	1425.083008	-210.273911
-7453.126862	4231.309333	1424.007813	-25.025335
-7453.126862	4231.309333	1422.933594	65.847733
-7453.126862	4231.309333	1421.858398	-8.712763
-7453.126862	4231.309333	1420.783203	22.458435
-7453.126862	4231.309333	1419.708008	-0.653341
-7453.126862	4231.309333	1418.631836	202.102234
-7453.126862	4231.309333	1417.555664	108.482094
-7453.126862	4231.309333	1416.479492	172.443237
-7453.126862	4231.309333	1415.403320	274.602844
-7453.126862	4231.309333	1414.327148	166.871017
-7453.126862	4231.309333	1413.250000	340.876801
-7453.126862	4231.309333	1412.173828	199.296631
-7453.126862	4231.309333	1411.096680	211.272430
-7453.126862	4231.309333	1410.018555	324.438049
-7453.126862	4231.309333	1408.941406	216.713852
-7453.126862	4231.309333	1407.863281	261.562286
-7453.126862	4231.309333	1406.785156	144.533829
-7453.126862	4231.309333	1405.707031	168.917465
-7453.126862	4231.309333	1404.628906	531.194641
-7453.126862	4231.309333	1403.549805	262.381317
-7453.126862	4231.309333	1402.470703	227.400955
-7453.126862	4231.309333	1401.391602	297.148956
-7453.126862	4231.309333	1400.312500	571.224915
-7453.126862	4231.309333	1399.233398	547.479248
-7453.126862	4231.309333	1398.153320	608.110901
-7453.126862	4231.309333	1397.073242	590.560547
-7453.126862	4231.309333	1395.993164	538.522522
-7453.126862	4231.309333	1394.913086	620.121765
-7453.126862	4231.309333	1393.832031	426.667480
-7453.126862	4231.309333	1392.750977	288.067139
-7453.126862	4231.309333	1391.669922	435.709320
-7453.126862	4231.309333	1390.588867	214.961151
-7453.126862	4231.309333	1389.506836	366.451385
-7453.126862	4231.309333	1388.425781	432.799225
-7453.126862	4231.309333	1387.343750	121.020096
-7453.126862	4231.309333	1386.261719	178.914780
-7453.126862	4231.309333	1385.178711	288.925629
-7453.126862	4231.309333	1384.096680	208.195007
-7453.126862	4231.309333	1383.013672	63.080418
-7453.126862	4231.309333	1381.930664	256.546509
-7453.126862	4231.309333	1380.846680	243.199890
-7453.126862	4231.309333	1379.763672	400.101501
-7453.126862	4231.309333	1378.679688	156.954880
-7453.126862	4231.309333	1377.595703	331.973541
-7453.126862	4231.309333	1376.511719	185.617325
-7453.126862	4231.309333	1375.427734	319.007202
-7453.126862	4231.309333	1374.342773	280.665955
-7453.126862	4231.309333	1373.257813	381.342133
-7453.126862	4231.309333	1372.172852	77.967201
-7453.126862	4231.309333	1371.087891	108.214897
-7453.126862	4231.309333	1370.001953	262.705750
-7453.126862	4231.309333	1368.916992	386.760803
-7453.126862	4231.309333	1367.831055	397.186768
-7453.126862	4231.309333	1366.744141	339.316589
-7453.126862	4231.309333	1365.658203	285.146851
-7453.126862	4231.309333	1364.571289	363.429779
-7453.126862	4231.309333	1363.484375	479.174316
-7453.126862	4231.309333	1362.397461	444.469177
-7453.126862	4231.309333	1361.310547	490.571045
-7453.126862	4231.309333	1360.222656	547.028442
-7453.126862	4231.309333	1359.135742	516.822021
-7453.126862	4231.309333	1358.047852	742.540222
-7453.126862	4231.309333	1356.958984	667.610779
-7453.126862	4231.309333	1355.871094	686.754211
-7453.126862	4231.309333	1354.782227	687.243835
-7453.126862	4231.309333	1353.693359	627.341187
-7453.126862	4231.309333	1352.604492	810.290222
-7453.126862	4231.309333	1351.515625	660.256897
-7453.126862	4231.309333	1350.425781	604.677551
-7453.126862	4231.309333	1349.335938	607.109619
-7453.126862	4231.309333	1348.246094	636.272644
-7453.126862	4231.309333	1347.156250	660.417358
-7453.126862	4231.309333	1346.066406	553.958618
-7453.126862	4231.309333	1344.975586	744.151550
-7453.126862	4231.309333	1343.884766	700.402771
-7453.126862	4231.309333	1342.793945	862.319580
-7453.126862	4231.309333	1341.702148	882.641418
-7453.126862	4231.309333	1340.611328	831.515747
-7453.126862	4231.309333	1339.519531	941.347534
-7453.126862	4231.309333	1338.427734	1045.770874
-7453.126862	4231.309333	1337.334961	962.227539
-7453.126862	4231.309333	1336.243164	954.662537
-7453.126862	4231.309333	1335.150391	1301.857056
-7453.126862	4231.309333	1334.057617	1280.807373
-7453.126862	4231.309333	1332.964844	1272.235962
-7453.126862	4231.309333	1331.871094	1262.930420
-7453.126862	4231.309333	1330.778320	1248.070679
-7453.126862	4231.309333	1329.684570	1327.142456
-7453.126862	4231.309333	1328.590820	1289.904419
-7453.126862	4231.309333	1327.496094	1055.459961
-7453.126862	4231.309333	1326.402344	1071.985718
-7453.126862	4231.309333	1325.307617	1049.367920
-7453.126862	4231.309333	1324.212891	738.809631
-7453.126862	4231.309333	1323.117188	789.650452
-7453.126862	4231.309333	1322.022461	652.941956
-7453.126862	4231.309333	1320.926758	539.356750
-7453.126862	4231.309333	1319.831055	535.204102
-7453.126862	4231.309333	1318.735352	437.045410
-7453.126862	4231.309333	1317.638672	429.114777
-7453.126862	4231.309333	1316.542969	303.700928
-7453.126862	4231.309333	1315.446289	367.472687
-7453.126862	4231.309333	1314.349609	191.463943
-7453.126862	4231.309333	1313.251953	427.062256
-7453.126862	4231.309333	1312.155273	268.062042
-7453.126862	4231.309333	1311.057617	343.207458
-7453.126862	4231.309333	1309.959961	313.236389
-7453.126862	4231.309333	1308.862305	313.943481
-7453.126862	4231.309333	1307.763672	266.200806
-7453.126862	4231.309333	1306.665039	243.712952
-7453.126862	4231.309333	1305.566406	442.349731
-7453.126862	4231.309333	1304.467773	262.574768
-7453.126862	4231.309333	1303.369141	257.806702
-7453.126862	4231.309333	1302.269531	307.111084
-7453.126862	4231.309333	1301.169922	302.573212
-7453.126862	4231.309333	1300.070313	303.868561
-7453.126862	4231.309333	1298.970703	149.743958
-7453.126862	4231.309333	1297.870117	282.490570
-7453.126862	4231.309333	1296.769531	173.400650
-7453.126862	4231.309333	1295.668945	73.903603
-7453.126862	4231.309333	1294.568359	42.859459
-7453.126862	4231.309333	1293.466797	168.198196
-7453.126862	4231.309333	1292.366211	232.302170
-7453.126862	4231.309333	1291.264648	246.030640
-7453.126862	4231.309333	1290.162109	217.982010
-7453.126862	4231.309333	1289.060547	159.741623
-7453.126862	4231.309333	1287.958008	350.484314
-7453.126862	4231.309333	1286.855469	352.766724
-7453.126862	4231.309333	1285.752930	330.500671
-7453.126862	4231.309333	1284.650391	468.474915
-7453.126862	4231.309333	1283.546875	467.510162
-7453.126862	4231.309333	1282.444336	791.216980
-7453.126862	4231.309333	1281.339844	631.330688
-7453.126862	4231.309333	1280.236328	557.457153
-7453.126862	4231.309333	1279.132813	673.703186
-7453.126862	4231.309333	1278.028320	461.110321
-7453.126862	4231.309333	1276.923828	304.654022
-7453.126862	4231.309333	1275.819336	328.920898
-7453.126862	4231.309333	1274.713867	114.161476
-7453.126862	4231.309333	1273.608398	-30.476978
-7453.126862	4231.309333	1272.503906	44.516029
-7453.126862	4231.309333	1271.397461	-158.962601
-7453.126862	4231.309333	1270.291992	-19.322138
-7453.126862	4231.309333	1269.185547	-110.681206
-7453.126862	4231.309333	1268.080078	-89.791992
-7453.126862	4231.309333	1266.972656	-21.400999
-7453.126862	4231.309333	1265.866211	-168.610062
-7453.126862	4231.309333	1264.759766	-104.234955
-7453.126862	4231.309333	1263.652344	45.074593
-7453.126862	4231.309333	1262.544922	-9.118291
-7453.126862	4231.309333	1261.436523	-55.564861
-7453.126862	4231.309333	1260.329102	-86.591736
-7453.126862	4231.309333	1259.220703	100.355568
-7453.126862	4231.309333	1258.112305	61.416279
-7453.126862	4231.309333	1257.003906	75.954330
-7453.126862	4231.309333	1255.895508	91.896118
-7453.126862	4231.309333	1254.786133	311.780487
-7453.126862	4231.309333	1253.676758	66.351151
-7453.126862	4231.309333	1252.567383	33.695621
-7453.126862	4231.309333	1251.458008	234.009857
-7453.126862	4231.309333	1250.347656	152.226273
-7453.126862	4231.309333	1249.237305	232.890305
-7453.126862	4231.309333	1248.126953	245.209579
-7453.126862	4231.309333	1247.016602	326.392731
-7453.126862	4231.309333	1245.905273	455.152527
-7453.126862	4231.309333	1244.793945	521.736450
-7453.126862	4231.309333	1243.682617	739.442993
-7453.126862	4231.309333	1242.571289	936.036438
-7453.126862	4231.309333	1241.459961	888.884583
-7453.126862	4231.309333	1240.347656	979.513733
-7453.126862	4231.309333	1239.235352	879.535583
-7453.126862	4231.309333	1238.123047	647.924316
-7453.126862	4231.309333	1237.009766	740.267822
-7453.126862	4231.309333	1235.897461	731.158020
-7453.126862	4231.309333	1234.784180	514.826477
-7453.126862	4231.309333	1233.670898	471.686615
-7453.126862	4231.309333	1232.556641	368.043060
-7453.126862	4231.309333	1231.443359	228.907654
-7453.126862	4231.309333	1230.329102	310.990479
-7453.126862	4231.309333	1229.214844	227.852493
-7453.126862	4231.309333	1228.099609	132.444763
-7453.126862	4231.309333	1226.985352	137.594513
-7453.126862	4231.309333	1225.870117	123.536301
-7453.126862	4231.309333	1224.754883	83.234360
-7453.126862	4231.309333	1223.639648	114.389496
-7453.126862	4231.309333	1222.523438	73.324883
-7453.126862	4231.309333	1221.408203	134.707565
-7453.126862	4231.309333	1220.291992	29.524078
-7453.126862	4231.309333	1219.174805	34.188145
-7453.126862	4231.309333	1218.058594	3.670513
-7453.126862	4231.309333	1216.941406	71.312218
-7453.126862	4231.309333	1215.824219	56.963211
-7453.126862	4231.309333	1214.707031	94.385826
-7453.126862	4231.309333	1213.589844	-24.318722
-7453.126862	4231.309333	1212.471680	-74.923943
-7453.126862	4231.309333	1211.353516	57.070507
-7453.126862	4231.309333	1210.235352	39.674034
-7453.126862	4231.309333	1209.117188	83.867737
-7453.126862	4231.309333	1207.998047	258.046082
-7453.126862	4231.309333	1206.878906	270.787506
-7453.126862	4231.309333	1205.759766	298.879791
-7453.126862	4231.309333	1204.640625	409.406555
-7453.126862	4231.309333	1203.520508	591.471191
-7453.126862	4231.309333	1202.401367	737.388306
-7453.126862	4231.309333	1201.281250	983.959839
-7453.126862	4231.309333	1200.160156	1006.773254
-7453.126862	4231.309333	1199.040039	1057.102173
-7453.126862	4231.309333	1197.918945	1036.667480
-7453.126862	4231.309333	1196.797852	858.265381
-7453.126862	4231.309333	1195.676758	766.596802
-7453.126862	4231.309333	1194.555664	539.769653
-7453.126862	4231.309333	1193.433594	255.092560
-7453.126862	4231.309333	1192.311523	161.623459
-7453.126862	4231.309333	1191.189453	144.140366
-7453.126862	4231.309333	1190.066406	99.459541
-7453.126862	4231.309333	1188.944336	90.644707
-7453.126862	4231.309333	1187.821289	7.341418
-7453.126862	4231.309333	1186.698242	121.328445
-7453.126862	4231.309333	1185.574219	91.139809
-7453.126862	4231.309333	1184.451172	178.463318
-7453.126862	4231.309333	1183.327148	27.135874
-7453.126862	4231.309333	1182.203125	86.259529
-7453.126862	4231.309333	1181.078125	-38.394432
-7453.126862	4231.309333	1179.954102	-24.622480
-7453.126862	4231.309333	1178.829102	-141.462799
-7453.126862	4231.309333	1177.704102	-193.140915
-7453.126862	4231.309333	1176.579102	-76.735764
-7453.126862	4231.309333	1175.453125	-158.892609
-7453.126862	4231.309333	1174.327148	-186.471725
-7453.126862	4231.309333	1173.201172	-173.173615
-7453.126862	4231.309333	1172.075195	-156.065002
-7453.126862	4231.309333	1170.949219	-110.757515
-7453.126862	4231.309333	1169.822266	34.063004
-7453.126862	4231.309333	1168.695313	-26.315216
-7453.126862	4231.309333	1167.568359	56.577740
-7453.126862	4231.309333	1166.440430	57.329918
-7453.126862	4231.309333	1165.313477	-6.582363
-7453.126862	4231.309333	1164.185547	-52.489559
-7453.126862	4231.309333	1163.057617	66.800446
-7453.126862	4231.309333	1161.928711	-33.968090
-7453.126862	4231.309333	1160.800781	12.529405
-7453.126862	4231.309333	1159.671875	61.781712
-7453.126862	4231.309333	1158.541992	34.155685
-7453.126862	4231.309333	1157.413086	-59.001530
-7453.126862	4231.309333	1156.283203	-167.245193
-7453.126862	4231.309333	1155.154297	-143.733475
-7453.126862	4231.309333	1154.023438	-50.872459
-7453.126862	4231.309333	1152.893555	-125.244888
-7453.126862	4231.309333	1151.763672	-107.797997
-7453.126862	4231.309333	1150.632813	-227.087952
-7453.126862	4231.309333	1149.501953	-41.747631
-7453.126862	4231.309333	1148.370117	-62.679920
-7453.126862	4231.309333	1147.239258	-93.979752
-7453.126862	4231.309333	1146.107422	-80.944832
-7453.126862	4231.309333	1144.975586	23.141655
-7453.126862	4231.309333	1143.843750	74.897133
-7453.126862	4231.309333	1142.710938	-51.444164
-7453.126862	4231.309333	1141.578125	-34.474915
-7453.126862	4231.309333	1140.445313	-109.112846
-7453.126862	4231.309333	1139.312500	-121.719048
-7453.126862	4231.309333	1138.178711	5.355709
-7453.126862	4231.309333	1137.045898	-40.270763
-7453.126862	4231.309333	1135.912109	-63.267574
-7453.126862	4231.309333	1134.777344	48.761471
-7453.126862	4231.309333	1133.643555	189.065170
-7453.126862	4231.309333	1132.508789	124.022171
-7453.126862	4231.309333	1131.374023	106.880791
-7453.126862	4231.309333	1130.239258	195.405945
-7453.126862	4231.309333	1129.104492	347.915283
-7453.126862	4231.309333	1127.968750	344.672119
-7453.126862	4231.309333	1126.833008	453.344849
-7453.126862	4231.309333	1125.697266	471.872650
-7453.126862	4231.309333	1124.560547	605.209717
-7453.126862	4231.309333	1123.424805	525.382629
-7453.126862	4231.309333	1122.288086	606.099792
-7453.126862	4231.309333	1121.151367	762.122314
-7453.126862	4231.309333	1120.013672	672.417114
-7453.126862	4231.309333	1118.876953	745.081116
-7453.126862	4231.309333	1117.739258	689.876404
-7453.126862	4231.309333	1116.601563	501.929413
-7453.126862	4231.309333	1115.462891	426.150269
-7453.126862	4231.309333	1114.324219	341.134369
-7453.126862	4231.309333	1113.186523	288.021088
-7453.126862	4231.309333	1112.046875	218.510651
-7453.126862	4231.309333	1110.908203	88.665718
-7453.126862	4231.309333	1109.769531	150.434418
-7453.126862	4231.309333	1108.629883	145.593414
-7453.126862	4231.309333	1107.490234	-22.679739
-7453.126862	4231.309333	1106.349609	-61.621101
-7453.126862	4231.309333	1105.209961	65.062286
-7453.126862	4231.309333	1104.069336	95.563934
-7453.126862	4231.309333	1102.928711	233.577148
-7453.126862	4231.309333	1101.787109	198.593796
-7453.126862	4231.309333	1100.646484	56.684887
-7453.126862	4231.309333	1099.504883	29.259562
-7453.126862	4231.309333	1098.363281	79.127937
-7453.126862	4231.309333	1097.221680	47.829933
-7453.126862	4231.309333	1096.079102	210.364151
-7453.126862	4231.309333	1094.936523	40.770260
-7453.126862	4231.309333	1093.793945	22.336746
-7453.126862	4231.309333	1092.651367	167.410660
-7453.126862	4231.309333	1091.507813	40.865997
-7453.126862	4231.309333	1090.364258	59.120010
-7453.126862	4231.309333	1089.220703	30.421625
-7453.126862	4231.309333	1088.077148	-7.274667
-7453.126862	4231.309333	1086.933594	149.189255
-7453.126862	4231.309333	1085.789063	91.907478
-7453.126862	4231.309333	1084.644531	85.766167
-7453.126862	4231.309333	1083.499023	11.631334
-7453.126862	4231.309333	1082.354492	75.455238
-7453.126862	4231.309333	1081.208984	120.052521
-7453.126862	4231.309333	1080.063477	-58.141724
-7453.126862	4231.309333	1078.917969	-49.538216
-7453.126862	4231.309333	1077.771484	20.015594
-7453.126862	4231.309333	1076.625977	-105.445740
-7453.126862	4231.309333	1075.479492	34.731544
-7453.126862	4231.309333	1074.332031	15.603459
-7453.126862	4231.309333	1073.185547	89.654449
-7453.126862	4231.309333	1072.038086	32.509796
-7453.126862	4231.309333	1070.890625	-13.358058
-7453.126862	4231.309333	1069.743164	69.847244
-7453.126862	4231.309333	1068.594727	98.169159
-7453.126862	4231.309333	1067.447266	70.110985
-7453.126862	4231.309333	1066.298828	141.449600
-7453.126862	4231.309333	1065.149414	112.618004
-7453.126862	4231.309333	1064.000977	13.714871
-7453.126862	4231.309333	1062.851563	-16.468405
-7453.126862	4231.309333	1061.702148	169.779129
-7453.126862	4231.309333	1060.552734	87.901344
-7453.126862	4231.309333	1059.402344	186.498138
-7453.126862	4231.309333	1058.252930	270.458008
-7453.126862	4231.309333	1057.102539	107.933952
-7453.126862	4231.309333	1055.951172	114.124588
-7453.126862	4231.309333	1054.800781	6.360020
-7453.126862	4231.309333	1053.649414	285.373627
-7453.126862	4231.309333	1052.498047	38.018181
-7453.126862	4231.309333	1051.346680	192.666794
-7453.126862	4231.309333	1050.194336	59.416767
-7453.126862	4231.309333	1049.042969	109.567200
-7453.126862	4231.309333	1047.890625	-55.425152
-7453.126862	4231.309333	1046.738281	31.599819
-7453.126862	4231.309333	1045.584961	21.040092
-7453.126862	4231.309333	1044.431641	19.109535
-7453.126862	4231.309333	1043.278320	-134.689850
-7453.126862	4231.309333	1042.125000	49.298248
-7453.126862	4231.309333	1040.971680	0.201323
-7453.126862	4231.309333	1039.817383	35.508556
-7453.126862	4231.309333	1038.663086	-52.320919
-7453.126862	4231.309333	1037.508789	-115.576088
-7453.126862	4231.309333	1036.353516	109.528046
-7453.126862	4231.309333	1035.198242	-63.290493
-7453.126862	4231.309333	1034.042969	84.151970
-7453.126862	4231.309333	1032.887695	104.159706
-7453.126862	4231.309333	1031.732422	7.286520
-7453.126862	4231.309333	1030.576172	1.128832
-7453.126862	4231.309333	1029.419922	-13.842267
-7453.126862	4231.309333	1028.263672	63.223904
-7453.126862	4231.309333	1027.106445	112.518921
-7453.126862	4231.309333	1025.949219	18.404575
-7453.126862	4231.309333	1024.792969	-101.318253
-7453.126862	4231.309333	1023.634766	50.902351
-7453.126862	4231.309333	1022.477539	44.791550
-7453.126862	4231.309333	1021.319336	-117.704300
-7453.126862	4231.309333	1020.161133	7.829968
-7453.126862	4231.309333	1019.002930	-68.736862
-7453.126862	4231.309333	1017.843750	100.343719
-7453.126862	4231.309333	1016.684570	-20.284016
-7453.126862	4231.309333	1015.525391	40.386894
-7453.126862	4231.309333	1014.366211	-54.072613
-7453.126862	4231.309333	1013.207031	47.603222
-7453.126862	4231.309333	1012.046875	-44.173119
-7453.126862	4231.309333	1010.886719	-142.254807
-7453.126862	4231.309333	1009.726563	43.254322
-7453.126862	4231.309333	1008.565430	-125.663513
-7453.126862	4231.309333	1007.404297	15.707467
-7453.126862	4231.309333	1006.243164	0.606183
-7453.126862	4231.309333	1005.082031	103.902908
-7453.126862	4231.309333	1003.920898	145.753571
-7453.126862	4231.309333	1002.758789	218.583176
-7453.126862	4231.309333	1001.596680	182.596878
-7453.126862	4231.309333	1000.433594	80.721603
-7453.126862	4231.309333	999.271484	-30.882822
-7453.126862	4231.309333	998.108398	37.796432
-7453.126862	4231.309333	996.945313	-55.078823
-7453.126862	4231.309333	995.782227	40.899792
-7453.126862	4231.309333	994.618164	121.555092
-7453.126862	4231.309333	993.454102	235.386841
-7453.126862	4231.309333	992.290039	284.478729
-7453.126862	4231.309333	991.125977	148.011627
-7453.126862	4231.309333	989.960938	244.854141
-7453.126862	4231.309333	988.796875	81.426308
-7453.126862	4231.309333	987.630859	105.422447
-7453.126862	4231.309333	986.465820	-50.337204
-7453.126862	4231.309333	985.300781	10.977397
-7453.126862	4231.309333	984.134766	85.152267
-7453.126862	4231.309333	982.968750	8.742082
-7453.126862	4231.309333	981.801758	-86.649796
-7453.126862	4231.309333	980.635742	58.508312
-7453.126862	4231.309333	979.468750	140.664597
-7453.126862	4231.309333	978.301758	16.368950
-7453.126862	4231.309333	977.133789	76.364304
-7453.126862	4231.309333	975.966797	75.891975
-7453.126862	4231.309333	974.798828	84.376579
-7453.126862	4231.309333	973.630859	11.872957
-7453.126862	4231.309333	972.461914	-217.732941
-7453.126862	4231.309333	971.293945	-121.357864
-7453.126862	4231.309333	970.125000	179.885071
-7453.126862	4231.309333	968.956055	47.860367
-7453.126862	4231.309333	967.786133	105.782990
-7453.126862	4231.309333	966.617188	48.442429
-7453.126862	4231.309333	965.447266	28.771776
-7453.126862	4231.309333	964.276367	-25.961205
-7453.126862	4231.309333	963.106445	33.584839
-7453.126862	4231.309333	961.935547	12.845836
-7453.126862	4231.309333	960.764648	62.543373
-7453.126862	4231.309333	959.593750	97.257759
-7453.126862	4231.309333	958.422852	20.048321
-7453.126862	4231.309333	957.250977	-11.720722
-7453.126862	4231.309333	956.079102	-62.459538
-7453.126862	4231.309333	954.907227	-59.869553
-7453.126862	4231.309333	953.734375	-50.095863
-7453.126862	4231.309333	952.562500	-15.530188
-7453.126862	4231.309333	951.389648	-3.293542
-7453.126862	4231.309333	950.215820	-5.522938
-7453.126862	4231.309333	949.042969	30.934431
-7453.126862	4231.309333	947.869141	58.230408
-7453.126862	4231.309333	946.695313	25.156130
-7453.126862	4231.309333	945.521484	13.920333
-7453.126862	4231.309333	944.346680	-24.032354
-7453.126862	4231.309333	943.172852	-54.892231
-7453.126862	4231.309333	941.998047	78.851768
-7453.126862	4231.309333	940.822266	19.212551
-7453.126862	4231.309333	939.647461	23.120010
-7453.126862	4231.309333	938.471680	-1.631661
-7453.126862	4231.309333	937.295898	10.787363
-7453.126862	4231.309333	936.119141	-59.673500
-7453.126862	4231.309333	934.943359	-51.698013
-7453.126862	4231.309333	933.766602	145.146576
-7453.126862	4231.309333	932.589844	38.014378
-7453.126862	4231.309333	931.413086	45.861187
-7453.126862	4231.309333	930.235352	66.750130
-7453.126862	4231.309333	929.057617	72.460831
-7453.126862	4231.309333	927.879883	69.440300
-7453.126862	4231.309333	926.702148	49.029610
-7453.126862	4231.309333	925.523438	-138.458664
-7453.126862	4231.309333	924.344727	12.590109
-7453.126862	4231.309333	923.166016	-172.682724
-7453.126862	4231.309333	921.987305	-125.821342
-7453.126862	4231.309333	920.807617	-109.342827
-7453.126862	4231.309333	919.627930	-106.643227
-7453.126862	4231.309333	919.497070	-166.298111
-7453.126862	4231.309333	918.331055	-34.992645
-7453.126862	4231.309333	917.165039	5.227537
-7453.126862	4231.309333	915.999023	-95.415657
-7453.126862	4231.309333	914.833008	-1.065069
-7453.126862	4231.309333	913.666016	15.268516
-7453.126862	4231.309333	912.499023	-57.195694
-7453.126862	4231.309333	911.332031	2.420457
-7453.126862	4231.309333	910.165039	87.976555
-7453.126862	4231.309333	908.997070	-51.572895
-7453.126862	4231.309333	907.830078	-59.096230
-7453.126862	4231.309333	906.661133	-60.132732
-7453.126862	4231.309333	905.493164	-9.274536
-7453.126862	4231.309333	904.325195	-217.922134
-7453.126862	4231.309333	903.156250	-171.392044
-7453.126862	4231.309333	901.987305	132.318665
-7453.126862	4231.309333	900.818359	-69.771698
-7453.126862	4231.309333	899.648438	73.900154
-7453.126862	4231.309333	898.478516	61.977848
-7453.126862	4231.309333	897.308594	43.573879
-7453.126862	4231.309333	896.138672	-87.110390
-7453.126862	4231.309333	894.968750	54.257275
-7453.126862	4231.309333	893.797852	115.703514
-7453.126862	4231.309333	892.626953	19.590714
-7453.126862	4231.309333	891.456055	-54.915413
-7453.126862	4231.309333	890.284180	77.677094
-7453.126862	4231.309333	889.113281	115.317474
-7453.126862	4231.309333	887.941406	124.908394
-7453.126862	4231.309333	886.768555	207.784485
-7453.126862	4231.309333	885.596680	88.024399
-7453.126862	4231.309333	884.423828	121.301285
-7453.126862	4231.309333	883.250977	-4.865718
-7453.126862	4231.309333	882.078125	110.254028
-7453.126862	4231.309333	880.905273	57.348675
-7453.126862	4231.309333	879.731445	92.736755
-7453.126862	4231.309333	878.557617	-29.036190
-7453.126862	4231.309333	877.383789	19.257523
-7453.126862	4231.309333	876.209961	125.622925
-7453.126862	4231.309333	875.035156	141.587509
-7453.126862	4231.309333	873.860352	174.747604
-7453.126862	4231.309333	872.685547	-32.956223
-7453.126862	4231.309333	871.510742	-21.282639
-7453.126862	4231.309333	870.334961	14.028743
-7453.126862	4231.309333	869.159180	-58.133278
-7453.126862	4231.309333	867.983398	-42.175316
-7453.126862	4231.309333	866.807617	94.072182
-7453.126862	4231.309333	865.630859	47.701115
-7453.126862	4231.309333	864.454102	-15.833316
-7453.126862	4231.309333	863.277344	19.411386
-7453.126862	4231.309333	862.100586	-72.002174
-7453.126862	4231.309333	860.922852	-114.021683
-7453.126862	4231.309333	859.745117	30.637659
-7453.126862	4231.309333	858.567383	-13.537727
-7453.126862	4231.309333	857.389648	-31.961327
-7453.126862	4231.309333	856.210938	-140.437302
-7453.126862	4231.309333	855.032227	-60.216488
-7453.126862	4231.309333	853.853516	-115.063957
-7453.126862	4231.309333	852.674805	1.542830
-7453.126862	4231.309333	851.495117	-72.580681
-7453.126862	4231.309333	850.315430	52.533882
-7453.126862	4231.309333	849.135742	-143.647095
-7453.126862	4231.309333	847.956055	-76.386261
-7453.126862	4231.309333	846.775391	202.778778
-7453.126862	4231.309333	845.595703	25.942924
-7453.126862	4231.309333	844.415039	-28.849468
-7453.126862	4231.309333	843.233398	-6.601306
-7453.126862	4231.309333	842.052734	-78.481346
-7453.126862	4231.309333	840.871094	-105.422813
-7453.126862	4231.309333	839.689453	104.972343
-7453.126862	4231.309333	838.506836	-1.091836
-7453.126862	4231.309333	837.325195	59.586006
-7453.126862	4231.309333	836.142578	124.511566
-7453.126862	4231.309333	834.959961	50.547256
-7453.126862	4231.309333	833.777344	111.171585
-7453.126862	4231.309333	832.593750	97.029961
-7453.126862	4231.309333	831.410156	149.077560
-7453.126862	4231.309333	830.226563	198.966217
-7453.126862	4231.309333	829.042969	90.906876
-7453.126862	4231.309333	827.858398	177.057098
-7453.126862	4231.309333	826.673828	54.110832
-7453.126862	4231.309333	825.489258	33.588055
-7453.126862	4231.309333	824.304688	-31.709017
-7453.126862	4231.309333	823.120117	-111.904930
-7453.126862	4231.309333	821.934570	-160.096039
-7453.126862	4231.309333	820.749023	-99.585999
-7453.126862	4231.309333	819.562500	43.992218
-7453.126862	4231.309333	818.376953	-97.936897
-7453.126862	4231.309333	817.190430	39.186893
-7453.126862	4231.309333	816.003906	-68.617310
-7453.126862	4231.309333	814.817383	-16.715799
-7453.126862	4231.309333	813.629883	-24.432999
-7453.126862	4231.309333	812.442383	-76.837227
-7453.126862	4231.309333	811.254883	-163.263519
-7453.126862	4231.309333	810.067383	-147.556717
-7453.126862	4231.309333	808.878906	-165.884521
-7453.126862	4231.309333	807.690430	-39.625332
-7453.126862	4231.309333	806.501953	-143.005814
-7453.126862	4231.309333	805.313477	-89.072456
-7453.126862	4231.309333	804.124023	-45.787464
-7453.126862	4231.309333	802.934570	18.719803
-7453.126862	4231.309333	801.745117	-56.988770
-7453.126862	4231.309333	800.555664	7.486094
-7453.126862	4231.309333	799.365234	97.409714
-7453.126862	4231.309333	798.175781	-247.864197
-7453.126862	4231.309333	796.985352	-94.266808
-7453.126862	4231.309333	795.793945	114.431709
-7453.126862	4231.309333	794.603516	87.563591
-7453.126862	4231.309333	793.412109	69.186882
-7453.126862	4231.309333	792.220703	-12.802390
-7453.126862	4231.309333	791.028320	96.044121
-7453.126862	4231.309333	789.836914	-108.866127
-7453.126862	4231.309333	788.644531	65.638634
-7453.126862	4231.309333	787.452148	49.377747
-7453.126862	4231.309333	786.258789	22.527563
-7453.126862	4231.309333	785.066406	129.105911
-7453.126862	4231.309333	783.873047	-20.573427
-7453.126862	4231.309333	782.679688	79.606766
-7453.126862	4231.309333	781.485352	50.630894
-7453.126862	4231.309333	780.291992	30.122763
-7453.126862	4231.309333	779.097656	-26.349499
-7453.126862	4231.309333	777.903320	234.478775
-7453.126862	4231.309333	776.708008	-8.128263
-7453.126862	4231.309333	775.512695	-73.036804
-7453.126862	4231.309333	774.318359	79.804482
-7453.126862	4231.309333	773.122070	57.158138
-7453.126862	4231.309333	771.926758	61.980370
-7453.126862	4231.309333	770.730469	66.793266
-7453.126862	4231.309333	769.534180	33.575382
-7453.126862	4231.309333	768.337891	-33.425495
-7453.126862	4231.309333	767.141602	41.046722
-7453.126862	4231.309333	765.944336	45.821980
-7453.126862	4231.309333	764.747070	145.552185
-7453.126862	4231.309333	763.549805	59.553978
-7453.126862	4231.309333	762.351563	34.757832
-7453.126862	4231.309333	761.154297	134.394684
-7453.126862	4231.309333	759.956055	210.785248
-7453.126862	4231.309333	758.757813	280.807068
-7453.126862	4231.309333	757.558594	38.839306
-7453.126862	4231.309333	756.359375	277.430389
-7453.126862	4231.309333	755.160156	105.065872
-7453.126862	4231.309333	753.960938	105.489082
-7453.126862	4231.309333	752.761719	23.763687
-7453.126862	4231.309333	751.561523	28.388403
-7453.126862	4231.309333	750.361328	176.146072
-7453.126862	4231.309333	749.160156	58.637463
-7453.126862	4231.309333	747.959961	107.397385
-7453.126862	4231.309333	746.758789	135.085159
-7453.126862	4231.309333	745.557617	192.193161
-7453.126862	4231.309333	744.356445	-34.635426
-7453.126862	4231.309333	743.154297	72.912979
-7453.126862	4231.309333	741.952148	75.297058
-7453.126862	4231.309333	740.750000	-35.824829
-7453.126862	4231.309333	739.547852	109.426849
-7453.126862	4231.309333	738.344727	162.168808
-7453.126862	4231.309333	737.142578	55.246147
-7453.126862	4231.309333	735.939453	26.045952
-7453.126862	4231.309333	734.735352	246.672302
-7453.126862	4231.309333	733.532227	271.979675
-7453.126862	4231.309333	732.328125	297.258362
-7453.126862	4231.309333	731.124023	190.325577
-7453.126862	4231.309333	729.918945	125.371620
-7453.126862	4231.309333	728.714844	272.243744
-7453.126862	4231.309333	727.509766	186.290253
-7453.126862	4231.309333	726.303711	186.303162
-7453.126862	4231.309333	725.098633	163.237274
-7453.126862	4231.309333	723.892578	54.245926
-7453.126862	4231.309333	722.686523	259.533142
-7453.126862	4231.309333	721.480469	73.020889
-7453.126862	4231.309333	720.274414	167.181473
-7453.126862	4231.309333	719.067383	64.469688
-7453.126862	4231.309333	717.860352	62.254169
-7453.126862	4231.309333	716.653320	-90.670052
-7453.126862	4231.309333	715.445313	-63.606541
-7453.126862	4231.309333	714.238281	19.902260
-7453.126862	4231.309333	713.030273	32.238819
-7453.126862	4231.309333	711.821289	82.184929
-7453.126862	4231.309333	710.613281	-33.079563
-7453.126862	4231.309333	709.404297	-39.629833
-7453.126862	4231.309333	708.195313	68.732513
-7453.126862	4231.309333	706.986328	24.500265
-7453.126862	4231.309333	705.776367	-153.431107
-7453.126862	4231.309333	704.566406	59.226707
-7453.126862	4231.309333	703.356445	-143.750793
-7453.126862	4231.309333	702.146484	-21.008989
-7453.126862	4231.309333	700.935547	66.171219
-7453.126862	4231.309333	699.724609	-72.080933
-7453.126862	4231.309333	698.513672	-101.818558
-7453.126862	4231.309333	697.302734	70.750954
-7453.126862	4231.309333	696.090820	-109.214905
-7453.126862	4231.309333	694.878906	79.901474
-7453.126862	4231.309333	693.666992	150.088013
-7453.126862	4231.309333	692.455078	-59.054588
-7453.126862	4231.309333	691.242188	-113.951424
-7453.126862	4231.309333	690.029297	22.796455
-7453.126862	4231.309333	688.816406	38.652084
-7453.126862	4231.309333	687.602539	146.090668
-7453.126862	4231.309333	686.389648	34.850178
-7453.126862	4231.309333	685.175781	4.799318
-7453.126862	4231.309333	683.960938	-0.301596
-7453.126862	4231.309333	682.747070	27.852985
-7453.126862	4231.309333	681.532227	309.737061
-7453.126862	4231.309333	680.317383	102.736664
-7453.126862	4231.309333	679.102539	161.932510
-7453.126862	4231.309333	677.886719	235.618454
-7453.126862	4231.309333	676.670898	257.276337
-7453.126862	4231.309333	675.455078	152.132370
-7453.126862	4231.309333	674.239258	152.948013
-7453.126862	4231.309333	673.022461	166.187866
-7453.126862	4231.309333	671.805664	131.620529
-7453.126862	4231.309333	670.588867	175.924438
-7453.126862	4231.309333	669.372070	189.034332
-7453.126862	4231.309333	668.154297	56.825897
-7453.126862	4231.309333	666.936523	67.801262
-7453.126862	4231.309333	665.718750	113.996773
-7453.126862	4231.309333	664.500977	218.205124
-7453.126862	4231.309333	663.282227	170.957657
-7453.126862	4231.309333	662.063477	138.200500
-7453.126862	4231.309333	660.844727	124.070587
-7453.126862	4231.309333	659.625000	-45.515076
-7453.126862	4231.309333	658.405273	249.018173
-7453.126862	4231.309333	657.185547	274.104187
-7453.126862	4231.309333	655.965820	261.859924
-7453.126862	4231.309333	654.745117	175.039658
-7453.126862	4231.309333	653.525391	123.404694
-7453.126862	4231.309333	652.303711	86.234802
-7453.126862	4231.309333	651.083008	351.141418
-7453.126862	4231.309333	649.861328	249.720566
-7453.126862	4231.309333	648.640625	239.306107
-7453.126862	4231.309333	647.417969	274.343933
-7453.126862	4231.309333	646.196289	179.074356
-7453.126862	4231.309333	644.973633	222.289948
-7453.126862	4231.309333	643.750977	155.913986
-7453.126862	4231.309333	642.528320	360.185608
-7453.126862	4231.309333	641.305664	182.171097
-7453.126862	4231.309333	640.082031	121.906151
-7453.126862	4231.309333	638.858398	61.621387
-7453.126862	4231.309333	637.634766	191.241013
-7453.126862	4231.309333	636.410156	137.067749
-7453.126862	4231.309333	635.185547	214.936340
-7453.126862	4231.309333	633.960938	20.400431
-7453.126862	4231.309333	632.736328	36.290031
-7453.126862	4231.309333	631.510742	270.720734
-7453.126862	4231.309333	630.285156	294.705231
-7453.126862	4231.309333	629.059570	217.628235
-7453.126862	4231.309333	627.833984	264.191406
-7453.126862	4231.309333	626.607422	246.813919
-7453.126862	4231.309333	625.380859	287.077972
-7453.126862	4231.309333	624.154297	113.081734
-7453.126862	4231.309333	622.927734	169.738312
-7453.126862	4231.309333	621.700195	160.443863
-7453.126862	4231.309333	620.472656	144.933090
-7453.126862	4231.309333	619.245117	-20.839836
-7453.126862	4231.309333	618.016602	0.633960
-7453.126862	4231.309333	616.788086	110.501442
-7453.126862	4231.309333	615.559570	175.033203
-7453.126862	4231.309333	614.331055	75.004257
-7453.126862	4231.309333	613.101563	174.368698
-7453.126862	4231.309333	611.872070	-57.244869
-7453.126862	4231.309333	610.642578	50.233013
-7453.126862	4231.309333	609.413086	65.174576
-7453.126862	4231.309333	608.182617	108.817032
-7453.126862	4231.309333	606.952148	-44.737213
-7453.126862	4231.309333	605.721680	-58.665207
-7453.126862	4231.309333	604.491211	-113.684532
-7453.126862	4231.309333	603.259766	-8.658160
-7453.126862	4231.309333	602.028320	114.744537
-7453.126862	4231.309333	600.796875	86.255241
-7453.126862	4231.309333	599.564453	-24.302563
-7453.126862	4231.309333	598.332031	78.385780
-7453.126862	4231.309333	597.099609	-110.110123
-7453.126862	4231.309333	595.867188	-239.132751
-7453.126862	4231.309333	594.633789	8.890308
-7453.126862	4231.309333	593.400391	-56.682152
-7453.126862	4231.309333	592.166992	12.914356
-7453.126862	4231.309333	590.933594	-81.384773
-7453.126862	4231.309333	589.699219	-61.036018
-7453.126862	4231.309333	588.464844	-32.550026
-7453.126862	4231.309333	587.230469	-143.278473
-7453.126862	4231.309333	585.995117	-20.753088
-7453.126862	4231.309333	584.760742	95.544815
-7453.126862	4231.309333	583.525391	127.898087
-7453.126862	4231.309333	582.289063	-191.501038
-7453.126862	4231.309333	581.053711	-118.293350
-7453.126862	4231.309333	579.817383	46.815590
-7453.126862	4231.309333	578.581055	9.515665
-7453.126862	4231.309333	577.343750	102.942513
-7453.126862	4231.309333	576.107422	-75.366623
-7453.126862	4231.309333	574.870117	30.216488
-7453.126862	4231.309333	573.631836	56.088749
-7453.126862	4231.309333	572.394531	8.431169
-7453.126862	4231.309333	571.156250	-2.509998
-7453.126862	4231.309333	569.917969	78.336273
-7453.126862	4231.309333	568.679688	79.554512
-7453.126862	4231.309333	567.440430	115.407196
-7453.126862	4231.309333	566.202148	85.963341
-7453.126862	4231.309333	564.961914	60.570206
-7453.126862	4231.309333	563.722656	65.731316
-7453.126862	4231.309333	562.482422	-81.977760
-7453.126862	4231.309333	561.243164	228.749527
-7453.126862	4231.309333	560.001953	113.594193
-7453.126862	4231.309333	558.761719	12.715826
-7453.126862	4231.309333	557.520508	91.018959
-7453.126862	4231.309333	556.279297	100.049606
-7453.126862	4231.309333	555.038086	-6.956237
-7453.126862	4231.309333	553.795898	63.074314
-7453.126862	4231.309333	552.554688	51.678646
-7453.126862	4231.309333	551.311523	-116.351288
-7453.126862	4231.309333	550.069336	-83.022873
-7453.126862	4231.309333	548.826172	-112.759941
-7453.126862	4231.309333	547.583984	62.782692
-7453.126862	4231.309333	546.339844	-84.886902
-7453.126862	4231.309333	545.096680	96.619644
-7453.126862	4231.309333	543.852539	-122.132362
-7453.126862	4231.309333	542.608398	-7.759710
-7453.126862	4231.309333	541.364258	80.148483
-7453.126862	4231.309333	540.119141	13.720140
-7453.126862	4231.309333	538.875000	-150.112381
-7453.126862	4231.309333	537.628906	-108.963867
-7453.126862	4231.309333	536.383789	-9.016888
-7453.126862	4231.309333	535.137695	-51.107685
-7453.126862	4231.309333	533.892578	-50.610443
-7453.126862	4231.309333	532.645508	-133.256775
-7453.126862	4231.309333	531.399414	-73.996201
-7453.126862	4231.309333	530.152344	-30.990740
-7453.126862	4231.309333	528.905273	82.893471
-7453.126862	4231.309333	527.658203	75.180603
-7453.126862	4231.309333	526.410156	148.461838
-7453.126862	4231.309333	525.163086	31.378757
-7453.126862	4231.309333	523.914063	-118.059738
-7453.126862	4231.309333	522.666016	78.638382
-7453.126862	4231.309333	521.416992	-208.358444
-7453.126862	4231.309333	520.167969	-207.976425
-7453.126862	4231.309333	518.918945	-98.385239
-7453.126862	4231.309333	517.669922	45.528076
-7453.126862	4231.309333	516.419922	86.263809
-7453.126862	4231.309333	515.169922	-22.596909
-7453.126862	4231.309333	513.919922	10.040806
-7453.126862	4231.309333	512.668945	-62.403370
-7453.126862	4231.309333	511.417969	38.895313
-7453.126862	4231.309333	510.166992	-84.019562
-7453.126862	4231.309333	508.916016	63.672432
-7453.126862	4231.309333	507.664063	-55.165749
-7453.126862	4231.309333	506.412109	-36.716240
-7453.126862	4231.309333	505.160156	78.577164
-7453.126862	4231.309333	503.907227	22.342514
-7453.126862	4231.309333	502.655273	-3.610783
-7453.126862	4231.309333	501.402344	-15.440759
-7453.126862	4231.309333	500.148438	-158.311020
-7453.126862	4231.309333	498.895508	-164.054321
-7453.126862	4231.309333	497.641602	45.827473
-7453.126862	4231.309333	496.387695	-109.047668
-7453.126862	4231.309333	495.132813	-40.269138
-7453.126862	4231.309333	493.878906	50.638748
-7453.126862	4231.309333	492.624023	-17.554947
-7453.126862	4231.309333	491.368164	-97.797714
-7453.126862	4231.309333	490.113281	11.182872
-7453.126862	4231.309333	488.857422	-101.218712
-7453.126862	4231.309333	487.601563	15.766600
-7453.126862	4231.309333	486.344727	24.093138
-7453.126862	4231.309333	485.088867	-186.758362
-7453.126862	4231.309333	483.832031	38.739765
-7453.126862	4231.309333	482.575195	16.917891
-7453.126862	4231.309333	481.317383	133.764389
-7453.126862	4231.309333	480.059570	-40.756668
-7453.126862	4231.309333	478.801758	17.807182
-7453.126862	4231.309333	477.543945	66.307762
-7453.126862	4231.309333	476.285156	46.521820
-7453.126862	4231.309333	475.027344	80.949638
-7453.126862	4231.309333	473.767578	103.316467
-7453.126862	4231.309333	472.508789	-60.926559
-7453.126862	4231.309333	471.249023	-60.602341
-7453.126862	4231.309333	469.989258	72.094505
-7453.126862	4231.309333	468.729492	24.265364
-7453.126862	4231.309333	467.469727	-17.529930
-7453.126862	4231.309333	466.208984	74.979996
-7453.126862	4231.309333	464.948242	63.243774
-7453.126862	4231.309333	463.686523	135.651779
-7453.126862	4231.309333	462.425781	29.756781
-7453.126862	4231.309333	461.164063	-16.022987
-7453.126862	4231.309333	459.901367	-55.785892
-7453.126862	4231.309333	458.639648	46.587502
-7453.126862	4231.309333	457.376953	-57.231441
-7453.126862	4231.309333	456.114258	-80.980690
-7453.126862	4231.309333	454.851563	77.308891
-7453.126862	4231.309333	453.587891	89.511299
-7453.126862	4231.309333	452.324219	-12.283588
-7453.126862	4231.309333	451.060547	1.898440
-7453.126862	4231.309333	449.796875	151.968506
-7453.126862	4231.309333	448.532227	76.141441
-7453.126862	4231.309333	447.267578	122.192764
-7453.126862	4231.309333	446.002930	-27.549759
-7453.126862	4231.309333	444.737305	-49.451782
-7453.126862	4231.309333	443.471680	126.283394
-7453.126862	4231.309333	442.206055	20.454842
-7453.126862	4231.309333	440.940430	-29.485146
-7453.126862	4231.309333	439.673828	78.179672
-7453.126862	4231.309333	438.407227	60.080025
-7453.126862	4231.309333	437.140625	21.998348
-7453.126862	4231.309333	435.873047	-147.722198
-7453.126862	4231.309333	434.605469	155.046829
-7453.126862	4231.309333	433.337891	-30.683104
-7453.126862	4231.309333	432.070313	8.779041
-7453.126862	4231.309333	430.801758	42.178947
-7453.126862	4231.309333	429.533203	27.692427
-7453.126862	4231.309333	428.264648	190.371826
-7453.126862	4231.309333	426.996094	68.197067
-7453.126862	4231.309333	425.726563	43.524734
-7453.126862	4231.309333	424.457031	-28.985956
-7453.126862	4231.309333	423.186523	67.558685
-7453.126862	4231.309333	421.916992	185.850159
-7453.126862	4231.309333	420.646484	59.361027
-7453.126862	4231.309333	419.375977	151.538101
-7453.126862	4231.309333	418.104492	140.183640
-7453.126862	4231.309333	416.833008	21.388189
-7453.126862	4231.309333	415.561523	101.224663
-7453.126862	4231.309333	414.290039	79.574326
-7453.126862	4231.309333	413.017578	67.719116
-7453.126862	4231.309333	411.746094	224.517746
-7453.126862	4231.309333	410.472656	128.944748
-7453.126862	4231.309333	409.200195	-67.973724
-7453.126862	4231.309333	407.926758	-8.984112
-7453.126862	4231.309333	406.653320	89.483597
-7453.126862	4231.309333	405.379883	72.672768
-7453.126862	4231.309333	404.105469	81.450119
-7453.126862	4231.309333	402.831055	203.038116
-7453.126862	4231.309333	401.556641	138.021591
-7453.126862	4231.309333	400.282227	37.137470
-7453.126862	4231.309333	399.006836	148.076889
-7453.126862	4231.309333	397.731445	3.172631
-7453.126862	4231.309333	396.456055	-1.296790
-7453.126862	4231.309333	395.179688	-77.319931
-7453.126862	4231.309333	393.903320	83.986870
-7453.126862	4231.309333	392.626953	102.428062
-7453.126862	4231.309333	391.350586	92.861496
-7453.126862	4231.309333	390.073242	152.229553
-7453.126862	4231.309333	388.795898	234.988159
-7453.126862	4231.309333	387.518555	46.447762
-7453.126862	4231.309333	386.240234	207.593872
-7453.126862	4231.309333	384.961914	40.172585
-7453.126862	4231.309333	383.683594	-10.946169
-7453.126862	4231.309333	382.405273	-44.646259
-7453.126862	4231.309333	381.125977	61.514645
-7453.126862	4231.309333	379.846680	-34.238758
-7453.126862	4231.309333	378.567383	132.239258
-7453.126862	4231.309333	377.287109	209.349777
-7453.126862	4231.309333	376.006836	171.487625
-7453.126862	4231.309333	374.726563	154.868561
-7453.126862	4231.309333	373.446289	5.578058
-7453.126862	4231.309333	372.165039	-75.137833
-7453.126862	4231.309333	370.883789	48.738899
-7453.126862	4231.309333	369.602539	83.289948
-7453.126862	4231.309333	368.320313	48.253349
-7453.126862	4231.309333	367.039063	67.837227
-7453.126862	4231.309333	365.755859	33.578228
-7453.126862	4231.309333	364.473633	28.268213
-7453.126862	4231.309333	363.190430	170.003326
-7453.126862	4231.309333	361.907227	25.499413
-7453.126862	4231.309333	360.624023	-33.016857
-7453.126862	4231.309333	359.340820	-121.744591
-7453.126862	4231.309333	358.056641	-69.513374
-7453.126862	4231.309333	356.772461	-88.889221
-7453.126862	4231.309333	355.487305	-6.784603
-7453.126862	4231.309333	354.202148	151.163620
-7453.126862	4231.309333	352.916992	32.965420
-7453.126862	4231.309333	351.631836	-1.523627
-7453.126862	4231.309333	350.346680	-11.339139
-7453.126862	4231.309333	349.060547	-20.123417
-7453.126862	4231.309333	347.774414	-131.990768
-7453.126862	4231.309333	346.487305	18.352245
-7453.126862	4231.309333	345.200195	12.515007
-7453.126862	4231.309333	343.913086	-12.017879
-7453.126862	4231.309333	342.625977	150.803940
-7453.126862	4231.309333	341.338867	153.528198
-7453.126862	4231.309333	340.050781	62.897049
-7453.126862	4231.309333	338.762695	-244.594955
-7453.126862	4231.309333	337.473633	-11.975013
-7453.126862	4231.309333	336.184570	54.639332
-7453.126862	4231.309333	334.895508	196.403030
-7453.126862	4231.309333	333.606445	46.789120
-7453.126862	4231.309333	332.317383	-13.971296
-7453.126862	4231.309333	331.027344	-195.593307
-7453.126862	4231.309333	329.736328	-90.709930
-7453.126862	4231.309333	328.446289	-51.896885
-7453.126862	4231.309333	327.155273	40.182510
-7453.126862	4231.309333	325.864258	62.195866
-7453.126862	4231.309333	324.573242	53.279491
-7453.126862	4231.309333	323.281250	-158.773071
-7453.126862	4231.309333	321.989258	-41.872543
-7453.126862	4231.309333	320.697266	10.704548
-7453.126862	4231.309333	319.405273	-46.006695
-7453.126862	4231.309333	318.112305	44.005997
-7453.126862	4231.309333	316.819336	-116.025246
-7453.126862	4231.309333	315.526367	-166.521301
-7453.126862	4231.309333	314.232422	-29.525896
-7453.126862	4231.309333	312.938477	-78.140747
-7453.126862	4231.309333	311.644531	35.218079
-7453.126862	4231.309333	310.349609	-37.098457
-7453.126862	4231.309333	309.054688	130.447876
-7453.126862	4231.309333	307.759766	75.250389
-7453.126862	4231.309333	306.464844	82.188622
-7453.126862	4231.309333	305.168945	236.911148
-7453.126862	4231.309333	303.873047	143.520767
-7453.126862	4231.309333	302.577148	201.734497
-7453.126862	4231.309333	301.281250	311.998718
-7453.126862	4231.309333	299.984375	400.106262
