#X		#Y		#Wave		#Intensity
-7297.573989	3825.690500	1999.946289	-153.308701
-7297.573989	3825.690500	1998.981445	-118.053871
-7297.573989	3825.690500	1998.017578	-145.902237
-7297.573989	3825.690500	1997.052734	-62.794865
-7297.573989	3825.690500	1996.088867	277.387604
-7297.573989	3825.690500	1995.124023	74.401260
-7297.573989	3825.690500	1994.159180	-91.887192
-7297.573989	3825.690500	1993.193359	80.629288
-7297.573989	3825.690500	1992.228516	-96.513763
-7297.573989	3825.690500	1991.262695	-78.514999
-7297.573989	3825.690500	1990.296875	156.799820
-7297.573989	3825.690500	1989.331055	-172.598419
-7297.573989	3825.690500	1988.365234	12.273607
-7297.573989	3825.690500	1987.398438	16.089573
-7297.573989	3825.690500	1986.432617	-264.914917
-7297.573989	3825.690500	1985.465820	49.687065
-7297.573989	3825.690500	1984.499023	89.379288
-7297.573989	3825.690500	1983.532227	311.587921
-7297.573989	3825.690500	1982.565430	187.382431
-7297.573989	3825.690500	1981.597656	-122.429810
-7297.573989	3825.690500	1980.629883	130.767319
-7297.573989	3825.690500	1979.662109	299.570740
-7297.573989	3825.690500	1978.694336	171.670914
-7297.573989	3825.690500	1977.726563	139.805847
-7297.573989	3825.690500	1976.758789	394.004303
-7297.573989	3825.690500	1975.790039	435.582031
-7297.573989	3825.690500	1974.821289	35.178936
-7297.573989	3825.690500	1973.852539	51.607239
-7297.573989	3825.690500	1972.883789	233.044128
-7297.573989	3825.690500	1971.915039	26.983963
-7297.573989	3825.690500	1970.945313	104.327896
-7297.573989	3825.690500	1969.975586	265.242371
-7297.573989	3825.690500	1969.005859	179.402649
-7297.573989	3825.690500	1968.036133	184.574631
-7297.573989	3825.690500	1967.066406	58.965393
-7297.573989	3825.690500	1966.096680	115.510269
-7297.573989	3825.690500	1965.125977	26.540535
-7297.573989	3825.690500	1964.155273	156.598541
-7297.573989	3825.690500	1963.184570	200.274292
-7297.573989	3825.690500	1962.213867	201.932953
-7297.573989	3825.690500	1961.242188	191.135818
-7297.573989	3825.690500	1960.271484	372.141998
-7297.573989	3825.690500	1959.299805	-30.129316
-7297.573989	3825.690500	1958.328125	308.015320
-7297.573989	3825.690500	1957.356445	163.889374
-7297.573989	3825.690500	1956.384766	118.060890
-7297.573989	3825.690500	1955.412109	91.807098
-7297.573989	3825.690500	1954.439453	131.828049
-7297.573989	3825.690500	1953.467773	98.019333
-7297.573989	3825.690500	1952.495117	206.641022
-7297.573989	3825.690500	1951.521484	-112.309250
-7297.573989	3825.690500	1950.548828	15.800999
-7297.573989	3825.690500	1949.575195	286.217194
-7297.573989	3825.690500	1948.601563	-10.686247
-7297.573989	3825.690500	1947.627930	77.854454
-7297.573989	3825.690500	1946.654297	-20.219305
-7297.573989	3825.690500	1945.680664	-83.954567
-7297.573989	3825.690500	1944.706055	68.179146
-7297.573989	3825.690500	1943.732422	28.891176
-7297.573989	3825.690500	1942.757813	158.793259
-7297.573989	3825.690500	1941.783203	134.137024
-7297.573989	3825.690500	1940.807617	165.840897
-7297.573989	3825.690500	1939.833008	116.624664
-7297.573989	3825.690500	1938.857422	136.018204
-7297.573989	3825.690500	1937.881836	47.575455
-7297.573989	3825.690500	1936.906250	-9.003889
-7297.573989	3825.690500	1935.930664	100.975853
-7297.573989	3825.690500	1934.955078	-171.110092
-7297.573989	3825.690500	1933.978516	-83.196854
-7297.573989	3825.690500	1933.001953	12.022846
-7297.573989	3825.690500	1932.025391	70.496132
-7297.573989	3825.690500	1931.048828	-3.190349
-7297.573989	3825.690500	1930.072266	-10.786967
-7297.573989	3825.690500	1929.094727	55.003002
-7297.573989	3825.690500	1928.118164	133.011276
-7297.573989	3825.690500	1927.140625	198.769104
-7297.573989	3825.690500	1926.163086	-124.190521
-7297.573989	3825.690500	1925.184570	-38.830017
-7297.573989	3825.690500	1924.207031	-80.556503
-7297.573989	3825.690500	1923.228516	-176.005997
-7297.573989	3825.690500	1922.250000	139.006363
-7297.573989	3825.690500	1921.271484	46.035889
-7297.573989	3825.690500	1920.292969	-5.359268
-7297.573989	3825.690500	1919.314453	145.933624
-7297.573989	3825.690500	1918.334961	-17.703651
-7297.573989	3825.690500	1917.355469	43.283318
-7297.573989	3825.690500	1916.375977	138.440598
-7297.573989	3825.690500	1915.396484	-90.888977
-7297.573989	3825.690500	1914.416992	-39.589195
-7297.573989	3825.690500	1913.436523	-0.473836
-7297.573989	3825.690500	1912.457031	-124.702759
-7297.573989	3825.690500	1911.476563	-241.543213
-7297.573989	3825.690500	1910.496094	-263.246277
-7297.573989	3825.690500	1909.515625	-99.697144
-7297.573989	3825.690500	1908.534180	-43.383595
-7297.573989	3825.690500	1907.552734	-145.398849
-7297.573989	3825.690500	1906.572266	-281.433990
-7297.573989	3825.690500	1905.590820	-310.238647
-7297.573989	3825.690500	1904.608398	-224.569366
-7297.573989	3825.690500	1903.626953	197.032822
-7297.573989	3825.690500	1902.644531	151.226517
-7297.573989	3825.690500	1901.663086	-11.323570
-7297.573989	3825.690500	1900.680664	-93.492027
-7297.573989	3825.690500	1899.698242	-2.892409
-7297.573989	3825.690500	1898.714844	-167.648514
-7297.573989	3825.690500	1897.732422	-13.773915
-7297.573989	3825.690500	1896.749023	37.971169
-7297.573989	3825.690500	1895.765625	67.856583
-7297.573989	3825.690500	1894.782227	-259.461761
-7297.573989	3825.690500	1893.798828	-273.193237
-7297.573989	3825.690500	1892.814453	347.142731
-7297.573989	3825.690500	1891.831055	83.210564
-7297.573989	3825.690500	1890.846680	-42.178524
-7297.573989	3825.690500	1889.862305	143.280945
-7297.573989	3825.690500	1888.877930	73.826622
-7297.573989	3825.690500	1887.892578	67.526978
-7297.573989	3825.690500	1886.908203	7.881768
-7297.573989	3825.690500	1885.922852	40.477749
-7297.573989	3825.690500	1884.937500	-135.508896
-7297.573989	3825.690500	1883.952148	54.796043
-7297.573989	3825.690500	1882.965820	-213.209915
-7297.573989	3825.690500	1881.980469	-117.450363
-7297.573989	3825.690500	1880.994141	240.068832
-7297.573989	3825.690500	1880.007813	338.180756
-7297.573989	3825.690500	1879.021484	48.622707
-7297.573989	3825.690500	1878.035156	62.001125
-7297.573989	3825.690500	1877.047852	-74.767929
-7297.573989	3825.690500	1876.061523	42.796719
-7297.573989	3825.690500	1875.074219	-72.083115
-7297.573989	3825.690500	1874.086914	-179.640091
-7297.573989	3825.690500	1873.098633	-28.182768
-7297.573989	3825.690500	1872.111328	-77.599373
-7297.573989	3825.690500	1871.123047	-255.200241
-7297.573989	3825.690500	1870.135742	126.023727
-7297.573989	3825.690500	1869.147461	-208.712372
-7297.573989	3825.690500	1868.158203	-81.496651
-7297.573989	3825.690500	1867.169922	-159.795731
-7297.573989	3825.690500	1866.180664	83.399475
-7297.573989	3825.690500	1865.192383	106.614418
-7297.573989	3825.690500	1864.203125	211.969528
-7297.573989	3825.690500	1863.213867	-100.608093
-7297.573989	3825.690500	1862.223633	-84.602821
-7297.573989	3825.690500	1861.234375	-34.792046
-7297.573989	3825.690500	1860.244141	-13.971350
-7297.573989	3825.690500	1859.253906	127.534340
-7297.573989	3825.690500	1858.263672	10.758828
-7297.573989	3825.690500	1857.273438	135.314026
-7297.573989	3825.690500	1856.282227	76.471367
-7297.573989	3825.690500	1855.291992	-131.892319
-7297.573989	3825.690500	1854.300781	45.659790
-7297.573989	3825.690500	1853.309570	73.650352
-7297.573989	3825.690500	1852.317383	-235.869919
-7297.573989	3825.690500	1851.326172	-41.551548
-7297.573989	3825.690500	1850.333984	68.339111
-7297.573989	3825.690500	1849.342773	86.626183
-7297.573989	3825.690500	1848.350586	206.060837
-7297.573989	3825.690500	1847.357422	-45.457977
-7297.573989	3825.690500	1846.365234	117.266991
-7297.573989	3825.690500	1845.372070	75.275887
-7297.573989	3825.690500	1844.379883	88.642982
-7297.573989	3825.690500	1843.386719	222.310699
-7297.573989	3825.690500	1842.393555	288.536194
-7297.573989	3825.690500	1841.399414	195.934464
-7297.573989	3825.690500	1840.406250	-12.101735
-7297.573989	3825.690500	1839.412109	51.645290
-7297.573989	3825.690500	1838.417969	72.063637
-7297.573989	3825.690500	1837.423828	147.733978
-7297.573989	3825.690500	1836.429688	-115.534538
-7297.573989	3825.690500	1835.434570	-119.220779
-7297.573989	3825.690500	1834.440430	14.005882
-7297.573989	3825.690500	1833.445313	-66.637169
-7297.573989	3825.690500	1832.450195	-0.788974
-7297.573989	3825.690500	1831.454102	-136.701965
-7297.573989	3825.690500	1830.458984	140.318069
-7297.573989	3825.690500	1829.462891	33.152351
-7297.573989	3825.690500	1828.466797	237.956924
-7297.573989	3825.690500	1827.470703	281.886749
-7297.573989	3825.690500	1826.474609	105.061630
-7297.573989	3825.690500	1825.478516	62.566261
-7297.573989	3825.690500	1824.481445	27.231970
-7297.573989	3825.690500	1823.484375	-120.820084
-7297.573989	3825.690500	1822.487305	191.367859
-7297.573989	3825.690500	1821.490234	95.966438
-7297.573989	3825.690500	1820.493164	-138.427872
-7297.573989	3825.690500	1819.495117	163.846161
-7297.573989	3825.690500	1818.498047	238.405823
-7297.573989	3825.690500	1817.500000	281.746613
-7297.573989	3825.690500	1816.500977	166.984451
-7297.573989	3825.690500	1815.502930	169.510391
-7297.573989	3825.690500	1814.504883	466.370392
-7297.573989	3825.690500	1813.505859	59.516518
-7297.573989	3825.690500	1812.506836	45.129185
-7297.573989	3825.690500	1811.507813	135.937805
-7297.573989	3825.690500	1810.508789	453.853455
-7297.573989	3825.690500	1809.508789	245.521317
-7297.573989	3825.690500	1808.508789	82.624123
-7297.573989	3825.690500	1807.508789	115.725304
-7297.573989	3825.690500	1806.508789	132.019211
-7297.573989	3825.690500	1805.508789	236.643539
-7297.573989	3825.690500	1804.508789	-31.513966
-7297.573989	3825.690500	1803.507813	106.394745
-7297.573989	3825.690500	1802.506836	24.482544
-7297.573989	3825.690500	1801.505859	200.385269
-7297.573989	3825.690500	1800.504883	108.791504
-7297.573989	3825.690500	1799.502930	141.260040
-7297.573989	3825.690500	1798.501953	44.789837
-7297.573989	3825.690500	1797.500000	36.548130
-7297.573989	3825.690500	1796.498047	221.443237
-7297.573989	3825.690500	1795.496094	246.404083
-7297.573989	3825.690500	1794.493164	6.604429
-7297.573989	3825.690500	1793.491211	98.188591
-7297.573989	3825.690500	1792.488281	51.411053
-7297.573989	3825.690500	1791.485352	-31.176813
-7297.573989	3825.690500	1790.482422	29.141121
-7297.573989	3825.690500	1789.478516	282.302002
-7297.573989	3825.690500	1788.475586	37.515495
-7297.573989	3825.690500	1787.471680	190.400635
-7297.573989	3825.690500	1786.467773	21.735828
-7297.573989	3825.690500	1785.463867	224.383820
-7297.573989	3825.690500	1784.459961	-15.792670
-7297.573989	3825.690500	1783.455078	269.889282
-7297.573989	3825.690500	1782.450195	81.954552
-7297.573989	3825.690500	1781.445313	386.361694
-7297.573989	3825.690500	1780.440430	88.910980
-7297.573989	3825.690500	1779.435547	-58.726101
-7297.573989	3825.690500	1778.429688	159.685760
-7297.573989	3825.690500	1777.424805	225.819153
-7297.573989	3825.690500	1776.418945	203.910736
-7297.573989	3825.690500	1775.413086	165.288849
-7297.573989	3825.690500	1774.406250	-34.942245
-7297.573989	3825.690500	1773.400391	90.183731
-7297.573989	3825.690500	1772.393555	362.383331
-7297.573989	3825.690500	1771.386719	226.053680
-7297.573989	3825.690500	1770.379883	262.956299
-7297.573989	3825.690500	1769.373047	157.364380
-7297.573989	3825.690500	1768.365234	265.252869
-7297.573989	3825.690500	1767.358398	142.911484
-7297.573989	3825.690500	1766.350586	274.294159
-7297.573989	3825.690500	1765.342773	194.486191
-7297.573989	3825.690500	1764.334961	261.610504
-7297.573989	3825.690500	1763.326172	293.051910
-7297.573989	3825.690500	1762.318359	122.946747
-7297.573989	3825.690500	1761.309570	234.779465
-7297.573989	3825.690500	1760.300781	47.971832
-7297.573989	3825.690500	1759.291016	95.627113
-7297.573989	3825.690500	1758.282227	-105.480812
-7297.573989	3825.690500	1757.272461	43.809620
-7297.573989	3825.690500	1756.262695	-24.839165
-7297.573989	3825.690500	1755.252930	159.694016
-7297.573989	3825.690500	1754.243164	29.335062
-7297.573989	3825.690500	1753.233398	78.742294
-7297.573989	3825.690500	1752.222656	149.317352
-7297.573989	3825.690500	1751.211914	28.207581
-7297.573989	3825.690500	1750.201172	-7.827063
-7297.573989	3825.690500	1749.190430	24.617931
-7297.573989	3825.690500	1748.179688	241.324051
-7297.573989	3825.690500	1747.167969	164.805878
-7297.573989	3825.690500	1746.156250	-103.159798
-7297.573989	3825.690500	1745.144531	184.028885
-7297.573989	3825.690500	1744.132813	-13.166824
-7297.573989	3825.690500	1743.121094	2.147939
-7297.573989	3825.690500	1742.108398	251.090958
-7297.573989	3825.690500	1741.095703	51.351654
-7297.573989	3825.690500	1740.083008	-91.762932
-7297.573989	3825.690500	1739.070313	-10.750445
-7297.573989	3825.690500	1738.057617	6.444245
-7297.573989	3825.690500	1737.043945	264.120239
-7297.573989	3825.690500	1736.030273	-18.432909
-7297.573989	3825.690500	1735.016602	106.933723
-7297.573989	3825.690500	1734.002930	-53.076233
-7297.573989	3825.690500	1732.989258	220.557281
-7297.573989	3825.690500	1731.974609	-342.554413
-7297.573989	3825.690500	1730.959961	-130.412323
-7297.573989	3825.690500	1729.945313	-12.660382
-7297.573989	3825.690500	1728.930664	79.053581
-7297.573989	3825.690500	1727.916016	48.206745
-7297.573989	3825.690500	1726.900391	-164.000046
-7297.573989	3825.690500	1725.885742	-246.742035
-7297.573989	3825.690500	1724.870117	-218.940445
-7297.573989	3825.690500	1723.853516	-170.069458
-7297.573989	3825.690500	1722.837891	64.551689
-7297.573989	3825.690500	1721.822266	-119.647705
-7297.573989	3825.690500	1720.805664	-115.748398
-7297.573989	3825.690500	1719.789063	-102.525719
-7297.573989	3825.690500	1718.772461	23.439087
-7297.573989	3825.690500	1717.754883	-294.913422
-7297.573989	3825.690500	1716.738281	-46.932770
-7297.573989	3825.690500	1715.720703	-130.379272
-7297.573989	3825.690500	1714.703125	211.261246
-7297.573989	3825.690500	1713.685547	31.360729
-7297.573989	3825.690500	1712.667969	-7.671748
-7297.573989	3825.690500	1711.649414	-67.903748
-7297.573989	3825.690500	1710.630859	-100.019966
-7297.573989	3825.690500	1709.612305	-26.603489
-7297.573989	3825.690500	1708.593750	-131.590881
-7297.573989	3825.690500	1707.575195	82.399635
-7297.573989	3825.690500	1706.555664	7.767078
-7297.573989	3825.690500	1705.536133	69.088844
-7297.573989	3825.690500	1704.516602	15.447954
-7297.573989	3825.690500	1703.497070	346.152039
-7297.573989	3825.690500	1702.477539	240.789978
-7297.573989	3825.690500	1701.457031	182.248840
-7297.573989	3825.690500	1700.437500	151.788773
-7297.573989	3825.690500	1699.416992	-82.494896
-7297.573989	3825.690500	1698.395508	163.267883
-7297.573989	3825.690500	1697.375000	15.570016
-7297.573989	3825.690500	1696.354492	200.251663
-7297.573989	3825.690500	1695.333008	92.256256
-7297.573989	3825.690500	1694.311523	-53.191540
-7297.573989	3825.690500	1693.290039	37.634003
-7297.573989	3825.690500	1692.267578	-107.874557
-7297.573989	3825.690500	1691.246094	111.430672
-7297.573989	3825.690500	1690.223633	-148.707336
-7297.573989	3825.690500	1689.201172	-11.413249
-7297.573989	3825.690500	1688.178711	-350.994476
-7297.573989	3825.690500	1687.155273	-262.898499
-7297.573989	3825.690500	1686.132813	72.765305
-7297.573989	3825.690500	1685.109375	22.837139
-7297.573989	3825.690500	1684.085938	-64.483154
-7297.573989	3825.690500	1683.062500	-161.157257
-7297.573989	3825.690500	1682.039063	-26.728859
-7297.573989	3825.690500	1681.014648	91.250893
-7297.573989	3825.690500	1679.990234	-40.541412
-7297.573989	3825.690500	1678.965820	156.637650
-7297.573989	3825.690500	1677.941406	-68.503616
-7297.573989	3825.690500	1676.916992	200.825104
-7297.573989	3825.690500	1675.891602	-3.341512
-7297.573989	3825.690500	1674.866211	249.462402
-7297.573989	3825.690500	1673.840820	-220.418137
-7297.573989	3825.690500	1672.815430	253.647095
-7297.573989	3825.690500	1671.790039	9.882016
-7297.573989	3825.690500	1670.763672	24.739214
-7297.573989	3825.690500	1669.737305	74.495247
-7297.573989	3825.690500	1668.710938	310.489319
-7297.573989	3825.690500	1667.684570	215.771606
-7297.573989	3825.690500	1666.658203	360.814087
-7297.573989	3825.690500	1665.630859	326.567352
-7297.573989	3825.690500	1664.603516	236.466278
-7297.573989	3825.690500	1663.576172	53.326675
-7297.573989	3825.690500	1662.548828	133.060028
-7297.573989	3825.690500	1661.520508	210.405930
-7297.573989	3825.690500	1660.493164	394.666595
-7297.573989	3825.690500	1659.464844	376.589386
-7297.573989	3825.690500	1658.436523	253.921783
-7297.573989	3825.690500	1657.408203	282.325317
-7297.573989	3825.690500	1656.378906	680.074707
-7297.573989	3825.690500	1655.350586	157.872681
-7297.573989	3825.690500	1654.321289	608.884460
-7297.573989	3825.690500	1653.291992	690.543152
-7297.573989	3825.690500	1652.261719	593.400879
-7297.573989	3825.690500	1651.232422	591.465027
-7297.573989	3825.690500	1650.202148	631.279785
-7297.573989	3825.690500	1649.171875	636.274292
-7297.573989	3825.690500	1648.141602	460.338715
-7297.573989	3825.690500	1647.111328	664.808350
-7297.573989	3825.690500	1646.080078	704.561462
-7297.573989	3825.690500	1645.049805	616.810608
-7297.573989	3825.690500	1644.018555	962.512024
-7297.573989	3825.690500	1642.987305	1078.669189
-7297.573989	3825.690500	1641.955078	856.506165
-7297.573989	3825.690500	1640.923828	1030.563354
-7297.573989	3825.690500	1639.891602	1014.637085
-7297.573989	3825.690500	1638.859375	1253.437744
-7297.573989	3825.690500	1637.827148	1473.638672
-7297.573989	3825.690500	1636.794922	1087.328979
-7297.573989	3825.690500	1635.761719	1177.897095
-7297.573989	3825.690500	1634.729492	1564.619385
-7297.573989	3825.690500	1633.696289	1143.853149
-7297.573989	3825.690500	1632.662109	1518.878906
-7297.573989	3825.690500	1631.628906	1433.623779
-7297.573989	3825.690500	1630.594727	1672.085327
-7297.573989	3825.690500	1629.561523	1866.571289
-7297.573989	3825.690500	1628.527344	1728.202637
-7297.573989	3825.690500	1627.493164	1954.988281
-7297.573989	3825.690500	1626.458008	2234.834229
-7297.573989	3825.690500	1625.423828	1994.928955
-7297.573989	3825.690500	1624.388672	2205.440186
-7297.573989	3825.690500	1623.353516	2321.240234
-7297.573989	3825.690500	1622.318359	2155.408447
-7297.573989	3825.690500	1621.282227	2229.685303
-7297.573989	3825.690500	1620.247070	2188.607910
-7297.573989	3825.690500	1619.210938	2032.221680
-7297.573989	3825.690500	1618.174805	1970.502197
-7297.573989	3825.690500	1617.137695	2137.142822
-7297.573989	3825.690500	1616.101563	2061.674805
-7297.573989	3825.690500	1615.064453	1695.807983
-7297.573989	3825.690500	1614.027344	1887.884644
-7297.573989	3825.690500	1612.990234	1794.195313
-7297.573989	3825.690500	1611.953125	1808.870117
-7297.573989	3825.690500	1610.916016	1547.177979
-7297.573989	3825.690500	1609.877930	1734.703369
-7297.573989	3825.690500	1608.839844	1590.643677
-7297.573989	3825.690500	1607.801758	1416.765869
-7297.573989	3825.690500	1606.763672	1737.858521
-7297.573989	3825.690500	1605.724609	1702.185791
-7297.573989	3825.690500	1604.685547	1618.269165
-7297.573989	3825.690500	1603.646484	1798.973389
-7297.573989	3825.690500	1602.607422	1680.688232
-7297.573989	3825.690500	1601.568359	1895.920776
-7297.573989	3825.690500	1600.528320	1559.373169
-7297.573989	3825.690500	1599.489258	1390.818970
-7297.573989	3825.690500	1598.449219	1493.553589
-7297.573989	3825.690500	1597.408203	1561.838135
-7297.573989	3825.690500	1596.368164	1646.252319
-7297.573989	3825.690500	1595.327148	1746.768066
-7297.573989	3825.690500	1594.287109	1505.183228
-7297.573989	3825.690500	1593.246094	1580.573364
-7297.573989	3825.690500	1592.204102	1672.059082
-7297.573989	3825.690500	1591.163086	1545.578735
-7297.573989	3825.690500	1590.121094	1572.938477
-7297.573989	3825.690500	1589.079102	1742.590576
-7297.573989	3825.690500	1588.037109	1554.458008
-7297.573989	3825.690500	1586.995117	1637.063354
-7297.573989	3825.690500	1585.953125	1423.960571
-7297.573989	3825.690500	1584.910156	1467.739258
-7297.573989	3825.690500	1583.867188	1740.757568
-7297.573989	3825.690500	1582.824219	1550.905029
-7297.573989	3825.690500	1581.781250	1647.569702
-7297.573989	3825.690500	1580.737305	1483.161621
-7297.573989	3825.690500	1579.693359	1401.343384
-7297.573989	3825.690500	1578.649414	1752.361938
-7297.573989	3825.690500	1577.605469	1354.804321
-7297.573989	3825.690500	1576.561523	1408.351318
-7297.573989	3825.690500	1575.516602	1439.075684
-7297.573989	3825.690500	1574.472656	1474.463867
-7297.573989	3825.690500	1573.427734	1525.932007
-7297.573989	3825.690500	1572.381836	1511.143555
-7297.573989	3825.690500	1571.336914	1421.015869
-7297.573989	3825.690500	1570.291016	1303.577148
-7297.573989	3825.690500	1569.246094	1305.136841
-7297.573989	3825.690500	1568.200195	904.616150
-7297.573989	3825.690500	1567.153320	1253.687988
-7297.573989	3825.690500	1566.107422	1230.417236
-7297.573989	3825.690500	1565.060547	1063.372070
-7297.573989	3825.690500	1564.013672	1387.392822
-7297.573989	3825.690500	1562.966797	1437.453125
-7297.573989	3825.690500	1561.919922	1352.938599
-7297.573989	3825.690500	1560.872070	1289.089233
-7297.573989	3825.690500	1559.825195	1277.853394
-7297.573989	3825.690500	1558.777344	1054.585449
-7297.573989	3825.690500	1557.729492	1116.582275
-7297.573989	3825.690500	1556.680664	934.681885
-7297.573989	3825.690500	1555.632813	962.700928
-7297.573989	3825.690500	1554.583984	760.607727
-7297.573989	3825.690500	1553.535156	718.220215
-7297.573989	3825.690500	1552.486328	584.828186
-7297.573989	3825.690500	1551.436523	1125.842407
-7297.573989	3825.690500	1550.387695	657.865601
-7297.573989	3825.690500	1549.337891	641.021362
-7297.573989	3825.690500	1548.288086	958.947266
-7297.573989	3825.690500	1547.238281	380.091309
-7297.573989	3825.690500	1546.187500	661.759338
-7297.573989	3825.690500	1545.136719	272.254578
-7297.573989	3825.690500	1544.086914	435.787842
-7297.573989	3825.690500	1543.035156	362.838531
-7297.573989	3825.690500	1541.984375	446.936401
-7297.573989	3825.690500	1540.933594	394.719513
-7297.573989	3825.690500	1539.881836	654.031433
-7297.573989	3825.690500	1538.830078	479.315247
-7297.573989	3825.690500	1537.778320	325.239502
-7297.573989	3825.690500	1536.725586	689.265259
-7297.573989	3825.690500	1535.673828	896.567932
-7297.573989	3825.690500	1534.621094	593.000793
-7297.573989	3825.690500	1533.568359	696.051208
-7297.573989	3825.690500	1532.515625	597.176697
-7297.573989	3825.690500	1531.461914	546.116272
-7297.573989	3825.690500	1530.409180	597.311584
-7297.573989	3825.690500	1529.355469	900.406128
-7297.573989	3825.690500	1528.301758	876.915894
-7297.573989	3825.690500	1527.247070	749.250244
-7297.573989	3825.690500	1526.193359	689.783325
-7297.573989	3825.690500	1525.138672	464.997528
-7297.573989	3825.690500	1524.083984	623.421936
-7297.573989	3825.690500	1523.029297	544.008118
-7297.573989	3825.690500	1521.974609	686.760315
-7297.573989	3825.690500	1520.918945	671.041748
-7297.573989	3825.690500	1519.863281	709.806702
-7297.573989	3825.690500	1518.807617	664.922607
-7297.573989	3825.690500	1517.751953	538.702393
-7297.573989	3825.690500	1516.696289	482.820160
-7297.573989	3825.690500	1515.639648	329.797852
-7297.573989	3825.690500	1514.583008	577.378113
-7297.573989	3825.690500	1513.526367	508.350250
-7297.573989	3825.690500	1512.469727	590.991882
-7297.573989	3825.690500	1511.412109	269.044159
-7297.573989	3825.690500	1510.355469	315.805023
-7297.573989	3825.690500	1509.297852	306.182312
-7297.573989	3825.690500	1508.240234	183.726410
-7297.573989	3825.690500	1507.181641	386.755066
-7297.573989	3825.690500	1506.124023	463.362030
-7297.573989	3825.690500	1505.065430	212.641693
-7297.573989	3825.690500	1504.006836	75.042290
-7297.573989	3825.690500	1502.948242	-148.139160
-7297.573989	3825.690500	1501.888672	-32.574574
-7297.573989	3825.690500	1500.830078	338.055023
-7297.573989	3825.690500	1499.770508	16.106953
-7297.573989	3825.690500	1498.710938	-167.990799
-7297.573989	3825.690500	1497.650391	128.441864
-7297.573989	3825.690500	1496.590820	136.312714
-7297.573989	3825.690500	1495.530273	112.761238
-7297.573989	3825.690500	1494.469727	138.937561
-7297.573989	3825.690500	1493.409180	122.433487
-7297.573989	3825.690500	1492.348633	137.614288
-7297.573989	3825.690500	1491.287109	204.733017
-7297.573989	3825.690500	1490.225586	253.948990
-7297.573989	3825.690500	1489.164063	73.639107
-7297.573989	3825.690500	1488.102539	165.910767
-7297.573989	3825.690500	1487.041016	82.744385
-7297.573989	3825.690500	1485.978516	231.510818
-7297.573989	3825.690500	1484.916016	-33.529823
-7297.573989	3825.690500	1483.853516	68.204422
-7297.573989	3825.690500	1482.791016	354.484924
-7297.573989	3825.690500	1481.727539	6.784575
-7297.573989	3825.690500	1480.664063	-75.394890
-7297.573989	3825.690500	1479.600586	-51.764542
-7297.573989	3825.690500	1478.537109	-131.347977
-7297.573989	3825.690500	1477.473633	94.696434
-7297.573989	3825.690500	1476.409180	-31.700815
-7297.573989	3825.690500	1475.344727	61.990612
-7297.573989	3825.690500	1474.280273	-64.104492
-7297.573989	3825.690500	1473.215820	-273.013702
-7297.573989	3825.690500	1472.151367	29.712008
-7297.573989	3825.690500	1471.085938	146.493912
-7297.573989	3825.690500	1470.020508	94.941727
-7297.573989	3825.690500	1468.955078	283.201660
-7297.573989	3825.690500	1467.888672	80.074295
-7297.573989	3825.690500	1466.823242	-212.614502
-7297.573989	3825.690500	1465.756836	137.525848
-7297.573989	3825.690500	1464.690430	637.289917
-7297.573989	3825.690500	1463.624023	158.927307
-7297.573989	3825.690500	1462.556641	171.686493
-7297.573989	3825.690500	1461.490234	430.686920
-7297.573989	3825.690500	1460.422852	467.365295
-7297.573989	3825.690500	1459.355469	251.949051
-7297.573989	3825.690500	1458.287109	316.138275
-7297.573989	3825.690500	1457.219727	381.234894
-7297.573989	3825.690500	1456.151367	486.996979
-7297.573989	3825.690500	1455.083008	497.450165
-7297.573989	3825.690500	1454.014648	472.408539
-7297.573989	3825.690500	1452.945313	546.264099
-7297.573989	3825.690500	1451.876953	614.520630
-7297.573989	3825.690500	1450.807617	574.992004
-7297.573989	3825.690500	1449.738281	381.318573
-7297.573989	3825.690500	1448.668945	215.247787
-7297.573989	3825.690500	1447.598633	481.978943
-7297.573989	3825.690500	1446.528320	453.810059
-7297.573989	3825.690500	1445.458008	95.672264
-7297.573989	3825.690500	1444.387695	592.137329
-7297.573989	3825.690500	1443.317383	578.761292
-7297.573989	3825.690500	1442.246094	317.691254
-7297.573989	3825.690500	1441.174805	316.722626
-7297.573989	3825.690500	1440.103516	323.556061
-7297.573989	3825.690500	1439.032227	498.476044
-7297.573989	3825.690500	1437.960938	455.587555
-7297.573989	3825.690500	1436.888672	371.026367
-7297.573989	3825.690500	1435.816406	355.276764
-7297.573989	3825.690500	1434.744141	372.842072
-7297.573989	3825.690500	1433.670898	113.299820
-7297.573989	3825.690500	1432.598633	359.219666
-7297.573989	3825.690500	1431.525391	258.773102
-7297.573989	3825.690500	1430.452148	217.441788
-7297.573989	3825.690500	1429.378906	182.307129
-7297.573989	3825.690500	1428.304688	-90.980537
-7297.573989	3825.690500	1427.231445	-115.337128
-7297.573989	3825.690500	1426.157227	155.366959
-7297.573989	3825.690500	1425.083008	-135.426254
-7297.573989	3825.690500	1424.007813	18.725016
-7297.573989	3825.690500	1422.933594	-224.664444
-7297.573989	3825.690500	1421.858398	-55.317684
-7297.573989	3825.690500	1420.783203	-168.154495
-7297.573989	3825.690500	1419.708008	-70.988136
-7297.573989	3825.690500	1418.631836	-357.417328
-7297.573989	3825.690500	1417.555664	-210.954025
-7297.573989	3825.690500	1416.479492	-65.284515
-7297.573989	3825.690500	1415.403320	-55.446716
-7297.573989	3825.690500	1414.327148	-150.822266
-7297.573989	3825.690500	1413.250000	-295.753540
-7297.573989	3825.690500	1412.173828	-52.058048
-7297.573989	3825.690500	1411.096680	84.668198
-7297.573989	3825.690500	1410.018555	77.108276
-7297.573989	3825.690500	1408.941406	122.893288
-7297.573989	3825.690500	1407.863281	68.168030
-7297.573989	3825.690500	1406.785156	388.722198
-7297.573989	3825.690500	1405.707031	179.914276
-7297.573989	3825.690500	1404.628906	391.929016
-7297.573989	3825.690500	1403.549805	673.573303
-7297.573989	3825.690500	1402.470703	550.614807
-7297.573989	3825.690500	1401.391602	704.980530
-7297.573989	3825.690500	1400.312500	275.038635
-7297.573989	3825.690500	1399.233398	424.569550
-7297.573989	3825.690500	1398.153320	359.111023
-7297.573989	3825.690500	1397.073242	442.569031
-7297.573989	3825.690500	1395.993164	285.477783
-7297.573989	3825.690500	1394.913086	214.361786
-7297.573989	3825.690500	1393.832031	-52.481052
-7297.573989	3825.690500	1392.750977	231.813766
-7297.573989	3825.690500	1391.669922	44.526600
-7297.573989	3825.690500	1390.588867	43.406502
-7297.573989	3825.690500	1389.506836	-128.135025
-7297.573989	3825.690500	1388.425781	-0.781109
-7297.573989	3825.690500	1387.343750	-93.713600
-7297.573989	3825.690500	1386.261719	16.839663
-7297.573989	3825.690500	1385.178711	136.436996
-7297.573989	3825.690500	1384.096680	232.513687
-7297.573989	3825.690500	1383.013672	279.076080
-7297.573989	3825.690500	1381.930664	-15.148985
-7297.573989	3825.690500	1380.846680	132.346359
-7297.573989	3825.690500	1379.763672	278.594391
-7297.573989	3825.690500	1378.679688	296.520020
-7297.573989	3825.690500	1377.595703	193.224792
-7297.573989	3825.690500	1376.511719	439.508514
-7297.573989	3825.690500	1375.427734	300.032318
-7297.573989	3825.690500	1374.342773	184.605209
-7297.573989	3825.690500	1373.257813	633.521851
-7297.573989	3825.690500	1372.172852	705.519409
-7297.573989	3825.690500	1371.087891	695.030640
-7297.573989	3825.690500	1370.001953	807.991699
-7297.573989	3825.690500	1368.916992	575.275146
-7297.573989	3825.690500	1367.831055	701.272278
-7297.573989	3825.690500	1366.744141	699.335693
-7297.573989	3825.690500	1365.658203	499.831726
-7297.573989	3825.690500	1364.571289	722.386353
-7297.573989	3825.690500	1363.484375	504.764191
-7297.573989	3825.690500	1362.397461	338.624359
-7297.573989	3825.690500	1361.310547	426.672882
-7297.573989	3825.690500	1360.222656	162.524338
-7297.573989	3825.690500	1359.135742	361.501251
-7297.573989	3825.690500	1358.047852	441.501862
-7297.573989	3825.690500	1356.958984	388.697144
-7297.573989	3825.690500	1355.871094	166.180771
-7297.573989	3825.690500	1354.782227	-74.330338
-7297.573989	3825.690500	1353.693359	296.144653
-7297.573989	3825.690500	1352.604492	418.842987
-7297.573989	3825.690500	1351.515625	350.300751
-7297.573989	3825.690500	1350.425781	331.263916
-7297.573989	3825.690500	1349.335938	332.263824
-7297.573989	3825.690500	1348.246094	335.936188
-7297.573989	3825.690500	1347.156250	325.619812
-7297.573989	3825.690500	1346.066406	419.483582
-7297.573989	3825.690500	1344.975586	391.158478
-7297.573989	3825.690500	1343.884766	431.693207
-7297.573989	3825.690500	1342.793945	630.633606
-7297.573989	3825.690500	1341.702148	586.354919
-7297.573989	3825.690500	1340.611328	536.171875
-7297.573989	3825.690500	1339.519531	638.929932
-7297.573989	3825.690500	1338.427734	661.677490
-7297.573989	3825.690500	1337.334961	437.899384
-7297.573989	3825.690500	1336.243164	730.542847
-7297.573989	3825.690500	1335.150391	499.978943
-7297.573989	3825.690500	1334.057617	291.074310
-7297.573989	3825.690500	1332.964844	221.837738
-7297.573989	3825.690500	1331.871094	313.967102
-7297.573989	3825.690500	1330.778320	378.038147
-7297.573989	3825.690500	1329.684570	403.541504
-7297.573989	3825.690500	1328.590820	263.970581
-7297.573989	3825.690500	1327.496094	307.792969
-7297.573989	3825.690500	1326.402344	247.338028
-7297.573989	3825.690500	1325.307617	366.739288
-7297.573989	3825.690500	1324.212891	366.011475
-7297.573989	3825.690500	1323.117188	308.473877
-7297.573989	3825.690500	1322.022461	309.428253
-7297.573989	3825.690500	1320.926758	256.578705
-7297.573989	3825.690500	1319.831055	151.310928
-7297.573989	3825.690500	1318.735352	415.180573
-7297.573989	3825.690500	1317.638672	202.204376
-7297.573989	3825.690500	1316.542969	188.927917
-7297.573989	3825.690500	1315.446289	221.057556
-7297.573989	3825.690500	1314.349609	333.949585
-7297.573989	3825.690500	1313.251953	368.950897
-7297.573989	3825.690500	1312.155273	406.308075
-7297.573989	3825.690500	1311.057617	238.085114
-7297.573989	3825.690500	1309.959961	252.108932
-7297.573989	3825.690500	1308.862305	160.644135
-7297.573989	3825.690500	1307.763672	510.973328
-7297.573989	3825.690500	1306.665039	280.624481
-7297.573989	3825.690500	1305.566406	468.016602
-7297.573989	3825.690500	1304.467773	302.656525
-7297.573989	3825.690500	1303.369141	338.154602
-7297.573989	3825.690500	1302.269531	382.897003
-7297.573989	3825.690500	1301.169922	321.163666
-7297.573989	3825.690500	1300.070313	522.160645
-7297.573989	3825.690500	1298.970703	326.254242
-7297.573989	3825.690500	1297.870117	583.492737
-7297.573989	3825.690500	1296.769531	679.179443
-7297.573989	3825.690500	1295.668945	541.379883
-7297.573989	3825.690500	1294.568359	600.552124
-7297.573989	3825.690500	1293.466797	590.174194
-7297.573989	3825.690500	1292.366211	658.740295
-7297.573989	3825.690500	1291.264648	702.514160
-7297.573989	3825.690500	1290.162109	826.098511
-7297.573989	3825.690500	1289.060547	830.079285
-7297.573989	3825.690500	1287.958008	616.737793
-7297.573989	3825.690500	1286.855469	519.941772
-7297.573989	3825.690500	1285.752930	593.940430
-7297.573989	3825.690500	1284.650391	380.955444
-7297.573989	3825.690500	1283.546875	465.435730
-7297.573989	3825.690500	1282.444336	498.961365
-7297.573989	3825.690500	1281.339844	339.691315
-7297.573989	3825.690500	1280.236328	543.611389
-7297.573989	3825.690500	1279.132813	446.518066
-7297.573989	3825.690500	1278.028320	430.610352
-7297.573989	3825.690500	1276.923828	582.671997
-7297.573989	3825.690500	1275.819336	521.721619
-7297.573989	3825.690500	1274.713867	623.202332
-7297.573989	3825.690500	1273.608398	785.976074
-7297.573989	3825.690500	1272.503906	714.465271
-7297.573989	3825.690500	1271.397461	904.688293
-7297.573989	3825.690500	1270.291992	608.007996
-7297.573989	3825.690500	1269.185547	670.342529
-7297.573989	3825.690500	1268.080078	533.016296
-7297.573989	3825.690500	1266.972656	598.770203
-7297.573989	3825.690500	1265.866211	504.244568
-7297.573989	3825.690500	1264.759766	371.028961
-7297.573989	3825.690500	1263.652344	293.611328
-7297.573989	3825.690500	1262.544922	487.349792
-7297.573989	3825.690500	1261.436523	344.847565
-7297.573989	3825.690500	1260.329102	361.013153
-7297.573989	3825.690500	1259.220703	482.126007
-7297.573989	3825.690500	1258.112305	448.083344
-7297.573989	3825.690500	1257.003906	294.792633
-7297.573989	3825.690500	1255.895508	315.458252
-7297.573989	3825.690500	1254.786133	325.474365
-7297.573989	3825.690500	1253.676758	344.453125
-7297.573989	3825.690500	1252.567383	140.684891
-7297.573989	3825.690500	1251.458008	203.399414
-7297.573989	3825.690500	1250.347656	252.899002
-7297.573989	3825.690500	1249.237305	189.862350
-7297.573989	3825.690500	1248.126953	-82.642838
-7297.573989	3825.690500	1247.016602	107.806587
-7297.573989	3825.690500	1245.905273	74.116394
-7297.573989	3825.690500	1244.793945	121.504456
-7297.573989	3825.690500	1243.682617	167.100983
-7297.573989	3825.690500	1242.571289	221.647537
-7297.573989	3825.690500	1241.459961	313.995026
-7297.573989	3825.690500	1240.347656	294.402679
-7297.573989	3825.690500	1239.235352	90.266251
-7297.573989	3825.690500	1238.123047	68.881989
-7297.573989	3825.690500	1237.009766	289.313721
-7297.573989	3825.690500	1235.897461	149.920288
-7297.573989	3825.690500	1234.784180	99.105278
-7297.573989	3825.690500	1233.670898	162.633789
-7297.573989	3825.690500	1232.556641	84.010979
-7297.573989	3825.690500	1231.443359	15.379076
-7297.573989	3825.690500	1230.329102	-99.700249
-7297.573989	3825.690500	1229.214844	79.758911
-7297.573989	3825.690500	1228.099609	85.910065
-7297.573989	3825.690500	1226.985352	-1.116004
-7297.573989	3825.690500	1225.870117	29.205055
-7297.573989	3825.690500	1224.754883	-105.519608
-7297.573989	3825.690500	1223.639648	-30.770981
-7297.573989	3825.690500	1222.523438	66.541840
-7297.573989	3825.690500	1221.408203	-17.606260
-7297.573989	3825.690500	1220.291992	136.277542
-7297.573989	3825.690500	1219.174805	-6.072978
-7297.573989	3825.690500	1218.058594	-107.981514
-7297.573989	3825.690500	1216.941406	-18.765985
-7297.573989	3825.690500	1215.824219	-17.039625
-7297.573989	3825.690500	1214.707031	-64.496231
-7297.573989	3825.690500	1213.589844	98.707497
-7297.573989	3825.690500	1212.471680	-107.636612
-7297.573989	3825.690500	1211.353516	3.049784
-7297.573989	3825.690500	1210.235352	-8.981771
-7297.573989	3825.690500	1209.117188	-25.565674
-7297.573989	3825.690500	1207.998047	71.287048
-7297.573989	3825.690500	1206.878906	98.561172
-7297.573989	3825.690500	1205.759766	61.318813
-7297.573989	3825.690500	1204.640625	148.915054
-7297.573989	3825.690500	1203.520508	62.434467
-7297.573989	3825.690500	1202.401367	124.417732
-7297.573989	3825.690500	1201.281250	187.446426
-7297.573989	3825.690500	1200.160156	108.609909
-7297.573989	3825.690500	1199.040039	37.140556
-7297.573989	3825.690500	1197.918945	0.832606
-7297.573989	3825.690500	1196.797852	124.200539
-7297.573989	3825.690500	1195.676758	134.156158
-7297.573989	3825.690500	1194.555664	53.298767
-7297.573989	3825.690500	1193.433594	94.562233
-7297.573989	3825.690500	1192.311523	-9.222364
-7297.573989	3825.690500	1191.189453	-11.525998
-7297.573989	3825.690500	1190.066406	148.831192
-7297.573989	3825.690500	1188.944336	-47.620758
-7297.573989	3825.690500	1187.821289	-92.057030
-7297.573989	3825.690500	1186.698242	-245.033005
-7297.573989	3825.690500	1185.574219	-5.214666
-7297.573989	3825.690500	1184.451172	24.041687
-7297.573989	3825.690500	1183.327148	-17.914061
-7297.573989	3825.690500	1182.203125	-110.256233
-7297.573989	3825.690500	1181.078125	-90.191963
-7297.573989	3825.690500	1179.954102	-23.116245
-7297.573989	3825.690500	1178.829102	9.351747
-7297.573989	3825.690500	1177.704102	-15.057811
-7297.573989	3825.690500	1176.579102	-233.925171
-7297.573989	3825.690500	1175.453125	-49.246750
-7297.573989	3825.690500	1174.327148	-196.256058
-7297.573989	3825.690500	1173.201172	25.827017
-7297.573989	3825.690500	1172.075195	-141.869751
-7297.573989	3825.690500	1170.949219	109.310707
-7297.573989	3825.690500	1169.822266	-130.328369
-7297.573989	3825.690500	1168.695313	-48.278084
-7297.573989	3825.690500	1167.568359	-63.151821
-7297.573989	3825.690500	1166.440430	-134.912109
-7297.573989	3825.690500	1165.313477	-282.185089
-7297.573989	3825.690500	1164.185547	-200.925980
-7297.573989	3825.690500	1163.057617	-126.800392
-7297.573989	3825.690500	1161.928711	-258.268097
-7297.573989	3825.690500	1160.800781	-178.166733
-7297.573989	3825.690500	1159.671875	77.193642
-7297.573989	3825.690500	1158.541992	-42.855164
-7297.573989	3825.690500	1157.413086	-25.863369
-7297.573989	3825.690500	1156.283203	-89.195023
-7297.573989	3825.690500	1155.154297	-77.203865
-7297.573989	3825.690500	1154.023438	-75.090080
-7297.573989	3825.690500	1152.893555	-45.350822
-7297.573989	3825.690500	1151.763672	-16.116968
-7297.573989	3825.690500	1150.632813	-14.602573
-7297.573989	3825.690500	1149.501953	20.413124
-7297.573989	3825.690500	1148.370117	42.480633
-7297.573989	3825.690500	1147.239258	-149.618317
-7297.573989	3825.690500	1146.107422	-44.785679
-7297.573989	3825.690500	1144.975586	-86.646164
-7297.573989	3825.690500	1143.843750	-124.729057
-7297.573989	3825.690500	1142.710938	-195.363937
-7297.573989	3825.690500	1141.578125	-16.331629
-7297.573989	3825.690500	1140.445313	-50.158459
-7297.573989	3825.690500	1139.312500	-196.667633
-7297.573989	3825.690500	1138.178711	-249.116638
-7297.573989	3825.690500	1137.045898	-207.574402
-7297.573989	3825.690500	1135.912109	-147.026642
-7297.573989	3825.690500	1134.777344	70.107574
-7297.573989	3825.690500	1133.643555	-12.443482
-7297.573989	3825.690500	1132.508789	-104.833794
-7297.573989	3825.690500	1131.374023	-45.485310
-7297.573989	3825.690500	1130.239258	-23.472164
-7297.573989	3825.690500	1129.104492	-7.240554
-7297.573989	3825.690500	1127.968750	124.754410
-7297.573989	3825.690500	1126.833008	411.815582
-7297.573989	3825.690500	1125.697266	223.363983
-7297.573989	3825.690500	1124.560547	410.993195
-7297.573989	3825.690500	1123.424805	-88.298111
-7297.573989	3825.690500	1122.288086	152.519852
-7297.573989	3825.690500	1121.151367	67.984581
-7297.573989	3825.690500	1120.013672	36.449291
-7297.573989	3825.690500	1118.876953	23.557533
-7297.573989	3825.690500	1117.739258	90.181549
-7297.573989	3825.690500	1116.601563	5.261393
-7297.573989	3825.690500	1115.462891	56.998718
-7297.573989	3825.690500	1114.324219	-40.939762
-7297.573989	3825.690500	1113.186523	-201.074661
-7297.573989	3825.690500	1112.046875	-6.323985
-7297.573989	3825.690500	1110.908203	-174.042847
-7297.573989	3825.690500	1109.769531	6.180329
-7297.573989	3825.690500	1108.629883	-109.336845
-7297.573989	3825.690500	1107.490234	125.606827
-7297.573989	3825.690500	1106.349609	0.369904
-7297.573989	3825.690500	1105.209961	136.483795
-7297.573989	3825.690500	1104.069336	-7.144139
-7297.573989	3825.690500	1102.928711	87.475548
-7297.573989	3825.690500	1101.787109	-26.986235
-7297.573989	3825.690500	1100.646484	91.819672
-7297.573989	3825.690500	1099.504883	289.144043
-7297.573989	3825.690500	1098.363281	216.882751
-7297.573989	3825.690500	1097.221680	137.864136
-7297.573989	3825.690500	1096.079102	146.636856
-7297.573989	3825.690500	1094.936523	7.915286
-7297.573989	3825.690500	1093.793945	-19.075743
-7297.573989	3825.690500	1092.651367	153.303635
-7297.573989	3825.690500	1091.507813	202.772812
-7297.573989	3825.690500	1090.364258	22.896925
-7297.573989	3825.690500	1089.220703	74.034622
-7297.573989	3825.690500	1088.077148	135.144135
-7297.573989	3825.690500	1086.933594	-109.580948
-7297.573989	3825.690500	1085.789063	38.942814
-7297.573989	3825.690500	1084.644531	-153.145950
-7297.573989	3825.690500	1083.499023	113.802528
-7297.573989	3825.690500	1082.354492	-9.498888
-7297.573989	3825.690500	1081.208984	-69.875938
-7297.573989	3825.690500	1080.063477	52.097282
-7297.573989	3825.690500	1078.917969	-198.002792
-7297.573989	3825.690500	1077.771484	142.608154
-7297.573989	3825.690500	1076.625977	-90.010880
-7297.573989	3825.690500	1075.479492	39.144051
-7297.573989	3825.690500	1074.332031	-10.872239
-7297.573989	3825.690500	1073.185547	105.257286
-7297.573989	3825.690500	1072.038086	-22.086714
-7297.573989	3825.690500	1070.890625	-23.278769
-7297.573989	3825.690500	1069.743164	-57.444599
-7297.573989	3825.690500	1068.594727	78.961563
-7297.573989	3825.690500	1067.447266	48.502243
-7297.573989	3825.690500	1066.298828	-35.781128
-7297.573989	3825.690500	1065.149414	164.870392
-7297.573989	3825.690500	1064.000977	153.287140
-7297.573989	3825.690500	1062.851563	203.396057
-7297.573989	3825.690500	1061.702148	336.667664
-7297.573989	3825.690500	1060.552734	186.934235
-7297.573989	3825.690500	1059.402344	7.637740
-7297.573989	3825.690500	1058.252930	-50.739750
-7297.573989	3825.690500	1057.102539	-108.237465
-7297.573989	3825.690500	1055.951172	-7.228305
-7297.573989	3825.690500	1054.800781	-46.097149
-7297.573989	3825.690500	1053.649414	-150.011383
-7297.573989	3825.690500	1052.498047	13.101342
-7297.573989	3825.690500	1051.346680	34.036221
-7297.573989	3825.690500	1050.194336	87.547424
-7297.573989	3825.690500	1049.042969	-66.162666
-7297.573989	3825.690500	1047.890625	47.649338
-7297.573989	3825.690500	1046.738281	9.519838
-7297.573989	3825.690500	1045.584961	51.877674
-7297.573989	3825.690500	1044.431641	0.542511
-7297.573989	3825.690500	1043.278320	43.963833
-7297.573989	3825.690500	1042.125000	-137.555374
-7297.573989	3825.690500	1040.971680	142.545715
-7297.573989	3825.690500	1039.817383	271.114716
-7297.573989	3825.690500	1038.663086	87.583740
-7297.573989	3825.690500	1037.508789	85.434517
-7297.573989	3825.690500	1036.353516	173.596573
-7297.573989	3825.690500	1035.198242	304.695526
-7297.573989	3825.690500	1034.042969	185.766739
-7297.573989	3825.690500	1032.887695	193.599564
-7297.573989	3825.690500	1031.732422	166.412994
-7297.573989	3825.690500	1030.576172	267.601257
-7297.573989	3825.690500	1029.419922	319.868225
-7297.573989	3825.690500	1028.263672	259.339111
-7297.573989	3825.690500	1027.106445	86.679565
-7297.573989	3825.690500	1025.949219	-132.067596
-7297.573989	3825.690500	1024.792969	31.864182
-7297.573989	3825.690500	1023.634766	-99.134384
-7297.573989	3825.690500	1022.477539	-20.293379
-7297.573989	3825.690500	1021.319336	-63.646282
-7297.573989	3825.690500	1020.161133	28.732677
-7297.573989	3825.690500	1019.002930	-16.679710
-7297.573989	3825.690500	1017.843750	-117.319649
-7297.573989	3825.690500	1016.684570	80.909622
-7297.573989	3825.690500	1015.525391	242.458527
-7297.573989	3825.690500	1014.366211	-89.584854
-7297.573989	3825.690500	1013.207031	99.174263
-7297.573989	3825.690500	1012.046875	-72.855766
-7297.573989	3825.690500	1010.886719	90.095772
-7297.573989	3825.690500	1009.726563	60.054474
-7297.573989	3825.690500	1008.565430	60.639568
-7297.573989	3825.690500	1007.404297	-104.992424
-7297.573989	3825.690500	1006.243164	112.141113
-7297.573989	3825.690500	1005.082031	101.220085
-7297.573989	3825.690500	1003.920898	206.086472
-7297.573989	3825.690500	1002.758789	-100.752975
-7297.573989	3825.690500	1001.596680	52.240253
-7297.573989	3825.690500	1000.433594	221.342377
-7297.573989	3825.690500	999.271484	226.957520
-7297.573989	3825.690500	998.108398	130.206284
-7297.573989	3825.690500	996.945313	-77.842484
-7297.573989	3825.690500	995.782227	-162.253052
-7297.573989	3825.690500	994.618164	48.527039
-7297.573989	3825.690500	993.454102	166.023727
-7297.573989	3825.690500	992.290039	118.776237
-7297.573989	3825.690500	991.125977	349.236877
-7297.573989	3825.690500	989.960938	146.187500
-7297.573989	3825.690500	988.796875	294.350983
-7297.573989	3825.690500	987.630859	-7.846507
-7297.573989	3825.690500	986.465820	30.945530
-7297.573989	3825.690500	985.300781	179.482513
-7297.573989	3825.690500	984.134766	4.868409
-7297.573989	3825.690500	982.968750	-54.526897
-7297.573989	3825.690500	981.801758	112.243271
-7297.573989	3825.690500	980.635742	119.015411
-7297.573989	3825.690500	979.468750	138.666107
-7297.573989	3825.690500	978.301758	-23.548910
-7297.573989	3825.690500	977.133789	208.337418
-7297.573989	3825.690500	975.966797	59.250629
-7297.573989	3825.690500	974.798828	103.364960
-7297.573989	3825.690500	973.630859	249.021179
-7297.573989	3825.690500	972.461914	194.315125
-7297.573989	3825.690500	971.293945	197.539719
-7297.573989	3825.690500	970.125000	426.592621
-7297.573989	3825.690500	968.956055	223.873245
-7297.573989	3825.690500	967.786133	139.452927
-7297.573989	3825.690500	966.617188	138.316177
-7297.573989	3825.690500	965.447266	230.565506
-7297.573989	3825.690500	964.276367	18.140352
-7297.573989	3825.690500	963.106445	-71.556694
-7297.573989	3825.690500	961.935547	-14.973065
-7297.573989	3825.690500	960.764648	64.392365
-7297.573989	3825.690500	959.593750	123.359955
-7297.573989	3825.690500	958.422852	296.200256
-7297.573989	3825.690500	957.250977	186.148422
-7297.573989	3825.690500	956.079102	142.545486
-7297.573989	3825.690500	954.907227	84.775291
-7297.573989	3825.690500	953.734375	-161.769882
-7297.573989	3825.690500	952.562500	163.421326
-7297.573989	3825.690500	951.389648	180.098267
-7297.573989	3825.690500	950.215820	38.456242
-7297.573989	3825.690500	949.042969	225.311386
-7297.573989	3825.690500	947.869141	177.792816
-7297.573989	3825.690500	946.695313	-79.042458
-7297.573989	3825.690500	945.521484	-10.939554
-7297.573989	3825.690500	944.346680	38.420364
-7297.573989	3825.690500	943.172852	108.179832
-7297.573989	3825.690500	941.998047	-6.303764
-7297.573989	3825.690500	940.822266	-40.519783
-7297.573989	3825.690500	939.647461	74.406860
-7297.573989	3825.690500	938.471680	-96.977142
-7297.573989	3825.690500	937.295898	120.983009
-7297.573989	3825.690500	936.119141	17.288588
-7297.573989	3825.690500	934.943359	44.091213
-7297.573989	3825.690500	933.766602	-100.184715
-7297.573989	3825.690500	932.589844	155.854965
-7297.573989	3825.690500	931.413086	133.152557
-7297.573989	3825.690500	930.235352	96.796120
-7297.573989	3825.690500	929.057617	76.248199
-7297.573989	3825.690500	927.879883	10.685493
-7297.573989	3825.690500	926.702148	282.298340
-7297.573989	3825.690500	925.523438	155.995987
-7297.573989	3825.690500	924.344727	404.967590
-7297.573989	3825.690500	923.166016	121.422096
-7297.573989	3825.690500	921.987305	91.757813
-7297.573989	3825.690500	920.807617	250.703186
-7297.573989	3825.690500	919.627930	255.426010
-7297.573989	3825.690500	919.497070	86.789139
-7297.573989	3825.690500	918.331055	220.878342
-7297.573989	3825.690500	917.165039	81.090179
-7297.573989	3825.690500	915.999023	100.638405
-7297.573989	3825.690500	914.833008	-21.178253
-7297.573989	3825.690500	913.666016	88.043266
-7297.573989	3825.690500	912.499023	194.950378
-7297.573989	3825.690500	911.332031	23.784191
-7297.573989	3825.690500	910.165039	-355.800171
-7297.573989	3825.690500	908.997070	-45.016922
-7297.573989	3825.690500	907.830078	-171.306198
-7297.573989	3825.690500	906.661133	-107.155243
-7297.573989	3825.690500	905.493164	-197.599548
-7297.573989	3825.690500	904.325195	27.690563
-7297.573989	3825.690500	903.156250	-82.949486
-7297.573989	3825.690500	901.987305	-157.762695
-7297.573989	3825.690500	900.818359	-73.687714
-7297.573989	3825.690500	899.648438	-23.234880
-7297.573989	3825.690500	898.478516	-51.126640
-7297.573989	3825.690500	897.308594	-52.199089
-7297.573989	3825.690500	896.138672	156.883545
-7297.573989	3825.690500	894.968750	-58.907246
-7297.573989	3825.690500	893.797852	-44.421791
-7297.573989	3825.690500	892.626953	48.238682
-7297.573989	3825.690500	891.456055	370.951904
-7297.573989	3825.690500	890.284180	168.576477
-7297.573989	3825.690500	889.113281	-47.151230
-7297.573989	3825.690500	887.941406	130.156967
-7297.573989	3825.690500	886.768555	278.341583
-7297.573989	3825.690500	885.596680	142.978134
-7297.573989	3825.690500	884.423828	286.571716
-7297.573989	3825.690500	883.250977	184.663925
-7297.573989	3825.690500	882.078125	-39.916374
-7297.573989	3825.690500	880.905273	-16.897871
-7297.573989	3825.690500	879.731445	-228.031677
-7297.573989	3825.690500	878.557617	113.721931
-7297.573989	3825.690500	877.383789	-30.558178
-7297.573989	3825.690500	876.209961	-223.837036
-7297.573989	3825.690500	875.035156	-62.846348
-7297.573989	3825.690500	873.860352	-28.916410
-7297.573989	3825.690500	872.685547	-15.076736
-7297.573989	3825.690500	871.510742	61.061134
-7297.573989	3825.690500	870.334961	34.739994
-7297.573989	3825.690500	869.159180	-207.482666
-7297.573989	3825.690500	867.983398	-233.810165
-7297.573989	3825.690500	866.807617	-338.024963
-7297.573989	3825.690500	865.630859	-133.073853
-7297.573989	3825.690500	864.454102	-23.862085
-7297.573989	3825.690500	863.277344	-210.424088
-7297.573989	3825.690500	862.100586	-274.693665
-7297.573989	3825.690500	860.922852	-132.295441
-7297.573989	3825.690500	859.745117	-78.867996
-7297.573989	3825.690500	858.567383	-307.622498
-7297.573989	3825.690500	857.389648	-56.592335
-7297.573989	3825.690500	856.210938	-3.327121
-7297.573989	3825.690500	855.032227	132.020081
-7297.573989	3825.690500	853.853516	194.025208
-7297.573989	3825.690500	852.674805	78.433174
-7297.573989	3825.690500	851.495117	82.661057
-7297.573989	3825.690500	850.315430	82.409416
-7297.573989	3825.690500	849.135742	148.652649
-7297.573989	3825.690500	847.956055	55.179600
-7297.573989	3825.690500	846.775391	-104.799820
-7297.573989	3825.690500	845.595703	105.384682
-7297.573989	3825.690500	844.415039	-23.597843
-7297.573989	3825.690500	843.233398	-181.367828
-7297.573989	3825.690500	842.052734	-130.903229
-7297.573989	3825.690500	840.871094	-151.366257
-7297.573989	3825.690500	839.689453	-12.445648
-7297.573989	3825.690500	838.506836	124.163963
-7297.573989	3825.690500	837.325195	32.710499
-7297.573989	3825.690500	836.142578	96.147705
-7297.573989	3825.690500	834.959961	-46.230629
-7297.573989	3825.690500	833.777344	12.685645
-7297.573989	3825.690500	832.593750	62.690029
-7297.573989	3825.690500	831.410156	92.731712
-7297.573989	3825.690500	830.226563	-158.016663
-7297.573989	3825.690500	829.042969	-205.381470
-7297.573989	3825.690500	827.858398	195.773453
-7297.573989	3825.690500	826.673828	20.137657
-7297.573989	3825.690500	825.489258	111.777367
-7297.573989	3825.690500	824.304688	190.084961
-7297.573989	3825.690500	823.120117	308.054413
-7297.573989	3825.690500	821.934570	63.932041
-7297.573989	3825.690500	820.749023	69.239632
-7297.573989	3825.690500	819.562500	103.182434
-7297.573989	3825.690500	818.376953	-28.382036
-7297.573989	3825.690500	817.190430	179.706833
-7297.573989	3825.690500	816.003906	85.574539
-7297.573989	3825.690500	814.817383	-15.180464
-7297.573989	3825.690500	813.629883	254.351974
-7297.573989	3825.690500	812.442383	-9.559976
-7297.573989	3825.690500	811.254883	-46.480900
-7297.573989	3825.690500	810.067383	6.879086
-7297.573989	3825.690500	808.878906	5.111627
-7297.573989	3825.690500	807.690430	60.544647
-7297.573989	3825.690500	806.501953	-9.571981
-7297.573989	3825.690500	805.313477	-31.287218
-7297.573989	3825.690500	804.124023	65.783409
-7297.573989	3825.690500	802.934570	-57.237072
-7297.573989	3825.690500	801.745117	-61.478664
-7297.573989	3825.690500	800.555664	-120.745178
-7297.573989	3825.690500	799.365234	125.576225
-7297.573989	3825.690500	798.175781	-54.704342
-7297.573989	3825.690500	796.985352	39.758991
-7297.573989	3825.690500	795.793945	-155.908005
-7297.573989	3825.690500	794.603516	-333.970154
-7297.573989	3825.690500	793.412109	98.586159
-7297.573989	3825.690500	792.220703	-141.040436
-7297.573989	3825.690500	791.028320	16.762663
-7297.573989	3825.690500	789.836914	-38.466293
-7297.573989	3825.690500	788.644531	-60.803825
-7297.573989	3825.690500	787.452148	-39.300140
-7297.573989	3825.690500	786.258789	83.051765
-7297.573989	3825.690500	785.066406	18.880316
-7297.573989	3825.690500	783.873047	-124.252617
-7297.573989	3825.690500	782.679688	79.003326
-7297.573989	3825.690500	781.485352	-75.143806
-7297.573989	3825.690500	780.291992	-18.906052
-7297.573989	3825.690500	779.097656	184.049637
-7297.573989	3825.690500	777.903320	246.680267
-7297.573989	3825.690500	776.708008	144.983765
-7297.573989	3825.690500	775.512695	128.671173
-7297.573989	3825.690500	774.318359	145.150909
-7297.573989	3825.690500	773.122070	76.215370
-7297.573989	3825.690500	771.926758	55.397449
-7297.573989	3825.690500	770.730469	-9.217379
-7297.573989	3825.690500	769.534180	147.059662
-7297.573989	3825.690500	768.337891	126.088036
-7297.573989	3825.690500	767.141602	207.833633
-7297.573989	3825.690500	765.944336	121.177895
-7297.573989	3825.690500	764.747070	248.683838
-7297.573989	3825.690500	763.549805	113.884758
-7297.573989	3825.690500	762.351563	193.176666
-7297.573989	3825.690500	761.154297	141.340134
-7297.573989	3825.690500	759.956055	-4.421831
-7297.573989	3825.690500	758.757813	127.090729
-7297.573989	3825.690500	757.558594	-51.449951
-7297.573989	3825.690500	756.359375	289.415955
-7297.573989	3825.690500	755.160156	158.815598
-7297.573989	3825.690500	753.960938	-98.298714
-7297.573989	3825.690500	752.761719	4.495081
-7297.573989	3825.690500	751.561523	100.654228
-7297.573989	3825.690500	750.361328	-6.016466
-7297.573989	3825.690500	749.160156	183.726318
-7297.573989	3825.690500	747.959961	170.686600
-7297.573989	3825.690500	746.758789	66.098824
-7297.573989	3825.690500	745.557617	127.049240
-7297.573989	3825.690500	744.356445	190.102570
-7297.573989	3825.690500	743.154297	48.417007
-7297.573989	3825.690500	741.952148	285.510590
-7297.573989	3825.690500	740.750000	-91.279457
-7297.573989	3825.690500	739.547852	184.815689
-7297.573989	3825.690500	738.344727	82.216827
-7297.573989	3825.690500	737.142578	73.139900
-7297.573989	3825.690500	735.939453	48.798260
-7297.573989	3825.690500	734.735352	41.811268
-7297.573989	3825.690500	733.532227	39.130451
-7297.573989	3825.690500	732.328125	25.537338
-7297.573989	3825.690500	731.124023	-94.558990
-7297.573989	3825.690500	729.918945	145.947647
-7297.573989	3825.690500	728.714844	186.502243
-7297.573989	3825.690500	727.509766	-63.970337
-7297.573989	3825.690500	726.303711	-99.461975
-7297.573989	3825.690500	725.098633	-111.105560
-7297.573989	3825.690500	723.892578	-79.388519
-7297.573989	3825.690500	722.686523	-167.052826
-7297.573989	3825.690500	721.480469	-35.643917
-7297.573989	3825.690500	720.274414	-82.160370
-7297.573989	3825.690500	719.067383	-111.355576
-7297.573989	3825.690500	717.860352	54.517921
-7297.573989	3825.690500	716.653320	-18.120441
-7297.573989	3825.690500	715.445313	-283.617889
-7297.573989	3825.690500	714.238281	-16.112446
-7297.573989	3825.690500	713.030273	67.136459
-7297.573989	3825.690500	711.821289	-5.604121
-7297.573989	3825.690500	710.613281	-242.890976
-7297.573989	3825.690500	709.404297	-88.332283
-7297.573989	3825.690500	708.195313	44.482841
-7297.573989	3825.690500	706.986328	-140.850311
-7297.573989	3825.690500	705.776367	-222.309937
-7297.573989	3825.690500	704.566406	-98.309265
-7297.573989	3825.690500	703.356445	21.279247
-7297.573989	3825.690500	702.146484	-12.706849
-7297.573989	3825.690500	700.935547	-133.168686
-7297.573989	3825.690500	699.724609	-350.856262
-7297.573989	3825.690500	698.513672	-45.647812
-7297.573989	3825.690500	697.302734	-118.603241
-7297.573989	3825.690500	696.090820	-33.912785
-7297.573989	3825.690500	694.878906	-296.906372
-7297.573989	3825.690500	693.666992	-0.724926
-7297.573989	3825.690500	692.455078	-45.693905
-7297.573989	3825.690500	691.242188	64.683907
-7297.573989	3825.690500	690.029297	0.246661
-7297.573989	3825.690500	688.816406	108.357407
-7297.573989	3825.690500	687.602539	-27.278671
-7297.573989	3825.690500	686.389648	259.684174
-7297.573989	3825.690500	685.175781	139.111618
-7297.573989	3825.690500	683.960938	-33.156731
-7297.573989	3825.690500	682.747070	5.775773
-7297.573989	3825.690500	681.532227	193.301117
-7297.573989	3825.690500	680.317383	290.272339
-7297.573989	3825.690500	679.102539	36.206871
-7297.573989	3825.690500	677.886719	197.709244
-7297.573989	3825.690500	676.670898	337.602295
-7297.573989	3825.690500	675.455078	1.856584
-7297.573989	3825.690500	674.239258	158.907532
-7297.573989	3825.690500	673.022461	242.739563
-7297.573989	3825.690500	671.805664	126.524223
-7297.573989	3825.690500	670.588867	152.246765
-7297.573989	3825.690500	669.372070	210.187347
-7297.573989	3825.690500	668.154297	265.938782
-7297.573989	3825.690500	666.936523	429.089722
-7297.573989	3825.690500	665.718750	134.585373
-7297.573989	3825.690500	664.500977	319.150269
-7297.573989	3825.690500	663.282227	286.744415
-7297.573989	3825.690500	662.063477	37.509266
-7297.573989	3825.690500	660.844727	106.042381
-7297.573989	3825.690500	659.625000	-121.607346
-7297.573989	3825.690500	658.405273	352.417358
-7297.573989	3825.690500	657.185547	23.982685
-7297.573989	3825.690500	655.965820	171.786835
-7297.573989	3825.690500	654.745117	57.934361
-7297.573989	3825.690500	653.525391	280.692657
-7297.573989	3825.690500	652.303711	117.565872
-7297.573989	3825.690500	651.083008	308.071320
-7297.573989	3825.690500	649.861328	369.953308
-7297.573989	3825.690500	648.640625	519.631592
-7297.573989	3825.690500	647.417969	166.004868
-7297.573989	3825.690500	646.196289	112.273079
-7297.573989	3825.690500	644.973633	349.678619
-7297.573989	3825.690500	643.750977	289.517334
-7297.573989	3825.690500	642.528320	36.822403
-7297.573989	3825.690500	641.305664	-25.371962
-7297.573989	3825.690500	640.082031	211.887543
-7297.573989	3825.690500	638.858398	-119.723412
-7297.573989	3825.690500	637.634766	51.203396
-7297.573989	3825.690500	636.410156	-19.454855
-7297.573989	3825.690500	635.185547	36.007748
-7297.573989	3825.690500	633.960938	281.604919
-7297.573989	3825.690500	632.736328	108.455803
-7297.573989	3825.690500	631.510742	195.929840
-7297.573989	3825.690500	630.285156	86.955544
-7297.573989	3825.690500	629.059570	176.567139
-7297.573989	3825.690500	627.833984	195.731430
-7297.573989	3825.690500	626.607422	116.752480
-7297.573989	3825.690500	625.380859	276.756012
-7297.573989	3825.690500	624.154297	227.696167
-7297.573989	3825.690500	622.927734	419.640320
-7297.573989	3825.690500	621.700195	315.184631
-7297.573989	3825.690500	620.472656	106.356049
-7297.573989	3825.690500	619.245117	53.207363
-7297.573989	3825.690500	618.016602	287.733185
-7297.573989	3825.690500	616.788086	115.333466
-7297.573989	3825.690500	615.559570	15.445726
-7297.573989	3825.690500	614.331055	-50.302113
-7297.573989	3825.690500	613.101563	-5.298170
-7297.573989	3825.690500	611.872070	54.618156
-7297.573989	3825.690500	610.642578	227.317932
-7297.573989	3825.690500	609.413086	-63.797497
-7297.573989	3825.690500	608.182617	249.299850
-7297.573989	3825.690500	606.952148	-82.031326
-7297.573989	3825.690500	605.721680	-124.041077
-7297.573989	3825.690500	604.491211	205.985382
-7297.573989	3825.690500	603.259766	85.374947
-7297.573989	3825.690500	602.028320	-120.131012
-7297.573989	3825.690500	600.796875	71.724243
-7297.573989	3825.690500	599.564453	112.748169
-7297.573989	3825.690500	598.332031	132.563812
-7297.573989	3825.690500	597.099609	25.041185
-7297.573989	3825.690500	595.867188	-1.739789
-7297.573989	3825.690500	594.633789	-75.149292
-7297.573989	3825.690500	593.400391	144.290039
-7297.573989	3825.690500	592.166992	223.691299
-7297.573989	3825.690500	590.933594	182.231049
-7297.573989	3825.690500	589.699219	155.674973
-7297.573989	3825.690500	588.464844	175.813660
-7297.573989	3825.690500	587.230469	204.471100
-7297.573989	3825.690500	585.995117	252.234329
-7297.573989	3825.690500	584.760742	249.190262
-7297.573989	3825.690500	583.525391	6.871591
-7297.573989	3825.690500	582.289063	95.034004
-7297.573989	3825.690500	581.053711	341.989716
-7297.573989	3825.690500	579.817383	116.898537
-7297.573989	3825.690500	578.581055	344.806519
-7297.573989	3825.690500	577.343750	287.057678
-7297.573989	3825.690500	576.107422	252.657150
-7297.573989	3825.690500	574.870117	273.311920
-7297.573989	3825.690500	573.631836	230.583191
-7297.573989	3825.690500	572.394531	232.323395
-7297.573989	3825.690500	571.156250	441.234894
-7297.573989	3825.690500	569.917969	271.895386
-7297.573989	3825.690500	568.679688	347.738953
-7297.573989	3825.690500	567.440430	358.135132
-7297.573989	3825.690500	566.202148	265.118408
-7297.573989	3825.690500	564.961914	288.314484
-7297.573989	3825.690500	563.722656	51.945946
-7297.573989	3825.690500	562.482422	163.930450
-7297.573989	3825.690500	561.243164	-76.408012
-7297.573989	3825.690500	560.001953	60.990326
-7297.573989	3825.690500	558.761719	-54.674145
-7297.573989	3825.690500	557.520508	141.822189
-7297.573989	3825.690500	556.279297	-39.034603
-7297.573989	3825.690500	555.038086	3.648153
-7297.573989	3825.690500	553.795898	33.732464
-7297.573989	3825.690500	552.554688	6.987654
-7297.573989	3825.690500	551.311523	16.122770
-7297.573989	3825.690500	550.069336	172.717758
-7297.573989	3825.690500	548.826172	40.884399
-7297.573989	3825.690500	547.583984	-6.636864
-7297.573989	3825.690500	546.339844	61.666203
-7297.573989	3825.690500	545.096680	20.598383
-7297.573989	3825.690500	543.852539	84.784378
-7297.573989	3825.690500	542.608398	50.161461
-7297.573989	3825.690500	541.364258	-100.026558
-7297.573989	3825.690500	540.119141	56.823654
-7297.573989	3825.690500	538.875000	-11.213458
-7297.573989	3825.690500	537.628906	162.482498
-7297.573989	3825.690500	536.383789	10.541156
-7297.573989	3825.690500	535.137695	-55.160458
-7297.573989	3825.690500	533.892578	-160.673477
-7297.573989	3825.690500	532.645508	-9.949367
-7297.573989	3825.690500	531.399414	35.817478
-7297.573989	3825.690500	530.152344	-136.625595
-7297.573989	3825.690500	528.905273	-92.834549
-7297.573989	3825.690500	527.658203	49.582359
-7297.573989	3825.690500	526.410156	-3.045957
-7297.573989	3825.690500	525.163086	91.174675
-7297.573989	3825.690500	523.914063	53.343166
-7297.573989	3825.690500	522.666016	72.166176
-7297.573989	3825.690500	521.416992	-36.785465
-7297.573989	3825.690500	520.167969	-212.678757
-7297.573989	3825.690500	518.918945	-40.761963
-7297.573989	3825.690500	517.669922	-216.482666
-7297.573989	3825.690500	516.419922	-218.311874
-7297.573989	3825.690500	515.169922	-155.208969
-7297.573989	3825.690500	513.919922	-152.777924
-7297.573989	3825.690500	512.668945	4.521884
-7297.573989	3825.690500	511.417969	-120.598312
-7297.573989	3825.690500	510.166992	-95.048355
-7297.573989	3825.690500	508.916016	-111.290878
-7297.573989	3825.690500	507.664063	-108.675034
-7297.573989	3825.690500	506.412109	-246.056366
-7297.573989	3825.690500	505.160156	5.308323
-7297.573989	3825.690500	503.907227	22.616652
-7297.573989	3825.690500	502.655273	10.703826
-7297.573989	3825.690500	501.402344	2.999108
-7297.573989	3825.690500	500.148438	-319.926361
-7297.573989	3825.690500	498.895508	-218.972092
-7297.573989	3825.690500	497.641602	-55.434483
-7297.573989	3825.690500	496.387695	160.208099
-7297.573989	3825.690500	495.132813	-206.205536
-7297.573989	3825.690500	493.878906	-176.206146
-7297.573989	3825.690500	492.624023	172.804199
-7297.573989	3825.690500	491.368164	-47.424217
-7297.573989	3825.690500	490.113281	-282.145081
-7297.573989	3825.690500	488.857422	22.918003
-7297.573989	3825.690500	487.601563	-47.138683
-7297.573989	3825.690500	486.344727	39.041698
-7297.573989	3825.690500	485.088867	-53.907143
-7297.573989	3825.690500	483.832031	-19.829229
-7297.573989	3825.690500	482.575195	39.197536
-7297.573989	3825.690500	481.317383	-22.516256
-7297.573989	3825.690500	480.059570	171.684738
-7297.573989	3825.690500	478.801758	109.923027
-7297.573989	3825.690500	477.543945	123.029045
-7297.573989	3825.690500	476.285156	269.167450
-7297.573989	3825.690500	475.027344	215.644394
-7297.573989	3825.690500	473.767578	14.547770
-7297.573989	3825.690500	472.508789	145.951889
-7297.573989	3825.690500	471.249023	354.118896
-7297.573989	3825.690500	469.989258	300.444855
-7297.573989	3825.690500	468.729492	313.187286
-7297.573989	3825.690500	467.469727	251.125183
-7297.573989	3825.690500	466.208984	348.850861
-7297.573989	3825.690500	464.948242	382.135193
-7297.573989	3825.690500	463.686523	371.762573
-7297.573989	3825.690500	462.425781	473.327240
-7297.573989	3825.690500	461.164063	350.790924
-7297.573989	3825.690500	459.901367	522.641846
-7297.573989	3825.690500	458.639648	414.478149
-7297.573989	3825.690500	457.376953	281.393768
-7297.573989	3825.690500	456.114258	641.412231
-7297.573989	3825.690500	454.851563	329.966827
-7297.573989	3825.690500	453.587891	459.699036
-7297.573989	3825.690500	452.324219	431.882294
-7297.573989	3825.690500	451.060547	341.846130
-7297.573989	3825.690500	449.796875	442.139618
-7297.573989	3825.690500	448.532227	283.584076
-7297.573989	3825.690500	447.267578	391.844604
-7297.573989	3825.690500	446.002930	129.654526
-7297.573989	3825.690500	444.737305	237.599213
-7297.573989	3825.690500	443.471680	411.498962
-7297.573989	3825.690500	442.206055	578.955994
-7297.573989	3825.690500	440.940430	372.097870
-7297.573989	3825.690500	439.673828	561.865356
-7297.573989	3825.690500	438.407227	257.641388
-7297.573989	3825.690500	437.140625	597.741638
-7297.573989	3825.690500	435.873047	528.645264
-7297.573989	3825.690500	434.605469	393.308472
-7297.573989	3825.690500	433.337891	458.025208
-7297.573989	3825.690500	432.070313	493.601898
-7297.573989	3825.690500	430.801758	301.992188
-7297.573989	3825.690500	429.533203	528.948425
-7297.573989	3825.690500	428.264648	442.106903
-7297.573989	3825.690500	426.996094	495.252075
-7297.573989	3825.690500	425.726563	649.116760
-7297.573989	3825.690500	424.457031	452.300293
-7297.573989	3825.690500	423.186523	405.701721
-7297.573989	3825.690500	421.916992	387.683899
-7297.573989	3825.690500	420.646484	517.665588
-7297.573989	3825.690500	419.375977	538.159607
-7297.573989	3825.690500	418.104492	704.496338
-7297.573989	3825.690500	416.833008	493.795258
-7297.573989	3825.690500	415.561523	408.382965
-7297.573989	3825.690500	414.290039	472.857361
-7297.573989	3825.690500	413.017578	397.089417
-7297.573989	3825.690500	411.746094	565.720276
-7297.573989	3825.690500	410.472656	622.883728
-7297.573989	3825.690500	409.200195	377.498627
-7297.573989	3825.690500	407.926758	288.019592
-7297.573989	3825.690500	406.653320	413.924744
-7297.573989	3825.690500	405.379883	173.735107
-7297.573989	3825.690500	404.105469	415.859863
-7297.573989	3825.690500	402.831055	201.632187
-7297.573989	3825.690500	401.556641	221.094269
-7297.573989	3825.690500	400.282227	316.047974
-7297.573989	3825.690500	399.006836	260.712311
-7297.573989	3825.690500	397.731445	555.749390
-7297.573989	3825.690500	396.456055	85.146271
-7297.573989	3825.690500	395.179688	411.945801
-7297.573989	3825.690500	393.903320	494.143860
-7297.573989	3825.690500	392.626953	272.448883
-7297.573989	3825.690500	391.350586	404.862305
-7297.573989	3825.690500	390.073242	239.606567
-7297.573989	3825.690500	388.795898	387.291931
-7297.573989	3825.690500	387.518555	313.191925
-7297.573989	3825.690500	386.240234	324.550964
-7297.573989	3825.690500	384.961914	378.325867
-7297.573989	3825.690500	383.683594	204.328003
-7297.573989	3825.690500	382.405273	291.724091
-7297.573989	3825.690500	381.125977	243.450745
-7297.573989	3825.690500	379.846680	210.947586
-7297.573989	3825.690500	378.567383	230.999237
-7297.573989	3825.690500	377.287109	434.383392
-7297.573989	3825.690500	376.006836	344.749786
-7297.573989	3825.690500	374.726563	80.797844
-7297.573989	3825.690500	373.446289	214.680969
-7297.573989	3825.690500	372.165039	82.267288
-7297.573989	3825.690500	370.883789	69.699379
-7297.573989	3825.690500	369.602539	-80.365662
-7297.573989	3825.690500	368.320313	166.938446
-7297.573989	3825.690500	367.039063	105.256905
-7297.573989	3825.690500	365.755859	22.410677
-7297.573989	3825.690500	364.473633	85.736252
-7297.573989	3825.690500	363.190430	23.830439
-7297.573989	3825.690500	361.907227	130.406448
-7297.573989	3825.690500	360.624023	40.431477
-7297.573989	3825.690500	359.340820	80.125565
-7297.573989	3825.690500	358.056641	-7.383638
-7297.573989	3825.690500	356.772461	110.070396
-7297.573989	3825.690500	355.487305	-54.484699
-7297.573989	3825.690500	354.202148	44.895073
-7297.573989	3825.690500	352.916992	279.760559
-7297.573989	3825.690500	351.631836	153.351028
-7297.573989	3825.690500	350.346680	227.560013
-7297.573989	3825.690500	349.060547	-8.468297
-7297.573989	3825.690500	347.774414	108.616493
-7297.573989	3825.690500	346.487305	33.505917
-7297.573989	3825.690500	345.200195	-26.266712
-7297.573989	3825.690500	343.913086	73.607018
-7297.573989	3825.690500	342.625977	97.251900
-7297.573989	3825.690500	341.338867	150.364014
-7297.573989	3825.690500	340.050781	208.501190
-7297.573989	3825.690500	338.762695	192.465927
-7297.573989	3825.690500	337.473633	100.227570
-7297.573989	3825.690500	336.184570	-47.841564
-7297.573989	3825.690500	334.895508	137.987747
-7297.573989	3825.690500	333.606445	-255.692932
-7297.573989	3825.690500	332.317383	-57.878986
-7297.573989	3825.690500	331.027344	-98.622627
-7297.573989	3825.690500	329.736328	-237.856262
-7297.573989	3825.690500	328.446289	-59.810150
-7297.573989	3825.690500	327.155273	-130.338120
-7297.573989	3825.690500	325.864258	-25.686262
-7297.573989	3825.690500	324.573242	-254.554886
-7297.573989	3825.690500	323.281250	-261.729736
-7297.573989	3825.690500	321.989258	-183.024567
-7297.573989	3825.690500	320.697266	-166.321136
-7297.573989	3825.690500	319.405273	-235.884018
-7297.573989	3825.690500	318.112305	-197.420364
-7297.573989	3825.690500	316.819336	27.951344
-7297.573989	3825.690500	315.526367	-53.535210
-7297.573989	3825.690500	314.232422	80.093788
-7297.573989	3825.690500	312.938477	-260.833771
-7297.573989	3825.690500	311.644531	215.884811
-7297.573989	3825.690500	310.349609	64.404289
-7297.573989	3825.690500	309.054688	206.692429
-7297.573989	3825.690500	307.759766	232.397552
-7297.573989	3825.690500	306.464844	230.465012
-7297.573989	3825.690500	305.168945	243.251053
-7297.573989	3825.690500	303.873047	353.571655
-7297.573989	3825.690500	302.577148	516.942810
-7297.573989	3825.690500	301.281250	969.449158
-7297.573989	3825.690500	299.984375	845.197144
