#X		#Y		#Wave		#Intensity
-6466.398936	4757.115833	1999.946289	16.336025
-6466.398936	4757.115833	1998.981445	-7.089808
-6466.398936	4757.115833	1998.017578	53.073353
-6466.398936	4757.115833	1997.052734	1.661246
-6466.398936	4757.115833	1996.088867	9.692061
-6466.398936	4757.115833	1995.124023	-93.790146
-6466.398936	4757.115833	1994.159180	10.774644
-6466.398936	4757.115833	1993.193359	23.643669
-6466.398936	4757.115833	1992.228516	123.124443
-6466.398936	4757.115833	1991.262695	-119.064262
-6466.398936	4757.115833	1990.296875	0.137428
-6466.398936	4757.115833	1989.331055	151.429199
-6466.398936	4757.115833	1988.365234	60.182323
-6466.398936	4757.115833	1987.398438	-36.009289
-6466.398936	4757.115833	1986.432617	58.228146
-6466.398936	4757.115833	1985.465820	-13.263549
-6466.398936	4757.115833	1984.499023	43.792213
-6466.398936	4757.115833	1983.532227	66.193924
-6466.398936	4757.115833	1982.565430	21.834793
-6466.398936	4757.115833	1981.597656	9.584832
-6466.398936	4757.115833	1980.629883	9.662847
-6466.398936	4757.115833	1979.662109	14.653178
-6466.398936	4757.115833	1978.694336	14.676538
-6466.398936	4757.115833	1977.726563	-86.552872
-6466.398936	4757.115833	1976.758789	-14.976859
-6466.398936	4757.115833	1975.790039	-0.216101
-6466.398936	4757.115833	1974.821289	-81.720139
-6466.398936	4757.115833	1973.852539	11.946136
-6466.398936	4757.115833	1972.883789	-94.243835
-6466.398936	4757.115833	1971.915039	-35.182827
-6466.398936	4757.115833	1970.945313	55.888435
-6466.398936	4757.115833	1969.975586	-30.594984
-6466.398936	4757.115833	1969.005859	57.933575
-6466.398936	4757.115833	1968.036133	143.943848
-6466.398936	4757.115833	1967.066406	91.923615
-6466.398936	4757.115833	1966.096680	84.244453
-6466.398936	4757.115833	1965.125977	-83.544487
-6466.398936	4757.115833	1964.155273	51.599842
-6466.398936	4757.115833	1963.184570	68.495995
-6466.398936	4757.115833	1962.213867	-8.173444
-6466.398936	4757.115833	1961.242188	-23.303041
-6466.398936	4757.115833	1960.271484	-43.366318
-6466.398936	4757.115833	1959.299805	-43.756859
-6466.398936	4757.115833	1958.328125	-14.646889
-6466.398936	4757.115833	1957.356445	16.895390
-6466.398936	4757.115833	1956.384766	114.799576
-6466.398936	4757.115833	1955.412109	40.563534
-6466.398936	4757.115833	1954.439453	-21.370171
-6466.398936	4757.115833	1953.467773	81.355865
-6466.398936	4757.115833	1952.495117	39.064583
-6466.398936	4757.115833	1951.521484	45.906429
-6466.398936	4757.115833	1950.548828	25.714771
-6466.398936	4757.115833	1949.575195	5.517263
-6466.398936	4757.115833	1948.601563	36.873455
-6466.398936	4757.115833	1947.627930	6.836648
-6466.398936	4757.115833	1946.654297	65.152771
-6466.398936	4757.115833	1945.680664	111.166138
-6466.398936	4757.115833	1944.706055	63.922237
-6466.398936	4757.115833	1943.732422	-15.203934
-6466.398936	4757.115833	1942.757813	11.144406
-6466.398936	4757.115833	1941.783203	39.923813
-6466.398936	4757.115833	1940.807617	-9.768035
-6466.398936	4757.115833	1939.833008	-59.451599
-6466.398936	4757.115833	1938.857422	20.756897
-6466.398936	4757.115833	1937.881836	-11.782902
-6466.398936	4757.115833	1936.906250	34.071106
-6466.398936	4757.115833	1935.930664	-64.608566
-6466.398936	4757.115833	1934.955078	13.054059
-6466.398936	4757.115833	1933.978516	17.227831
-6466.398936	4757.115833	1933.001953	141.338577
-6466.398936	4757.115833	1932.025391	-16.061705
-6466.398936	4757.115833	1931.048828	49.264244
-6466.398936	4757.115833	1930.072266	-98.290535
-6466.398936	4757.115833	1929.094727	72.191277
-6466.398936	4757.115833	1928.118164	17.605131
-6466.398936	4757.115833	1927.140625	43.721973
-6466.398936	4757.115833	1926.163086	-1.074835
-6466.398936	4757.115833	1925.184570	-16.531351
-6466.398936	4757.115833	1924.207031	38.881210
-6466.398936	4757.115833	1923.228516	40.512577
-6466.398936	4757.115833	1922.250000	-28.707012
-6466.398936	4757.115833	1921.271484	-75.925583
-6466.398936	4757.115833	1920.292969	3.849932
-6466.398936	4757.115833	1919.314453	-11.630063
-6466.398936	4757.115833	1918.334961	107.148048
-6466.398936	4757.115833	1917.355469	-91.403046
-6466.398936	4757.115833	1916.375977	51.735332
-6466.398936	4757.115833	1915.396484	102.106041
-6466.398936	4757.115833	1914.416992	20.733379
-6466.398936	4757.115833	1913.436523	44.252991
-6466.398936	4757.115833	1912.457031	92.142227
-6466.398936	4757.115833	1911.476563	-28.205439
-6466.398936	4757.115833	1910.496094	-55.891247
-6466.398936	4757.115833	1909.515625	-0.715139
-6466.398936	4757.115833	1908.534180	54.435528
-6466.398936	4757.115833	1907.552734	12.118216
-6466.398936	4757.115833	1906.572266	101.334480
-6466.398936	4757.115833	1905.590820	-9.169256
-6466.398936	4757.115833	1904.608398	-68.508171
-6466.398936	4757.115833	1903.626953	10.922342
-6466.398936	4757.115833	1902.644531	-48.407227
-6466.398936	4757.115833	1901.663086	128.314026
-6466.398936	4757.115833	1900.680664	110.334656
-6466.398936	4757.115833	1899.698242	70.466270
-6466.398936	4757.115833	1898.714844	86.543106
-6466.398936	4757.115833	1897.732422	58.842884
-6466.398936	4757.115833	1896.749023	31.148781
-6466.398936	4757.115833	1895.765625	-18.414612
-6466.398936	4757.115833	1894.782227	-14.500326
-6466.398936	4757.115833	1893.798828	-27.599533
-6466.398936	4757.115833	1892.814453	109.914696
-6466.398936	4757.115833	1891.831055	-19.792208
-6466.398936	4757.115833	1890.846680	-71.748169
-6466.398936	4757.115833	1889.862305	29.267107
-6466.398936	4757.115833	1888.877930	59.845448
-6466.398936	4757.115833	1887.892578	112.250946
-6466.398936	4757.115833	1886.908203	-70.737892
-6466.398936	4757.115833	1885.922852	-8.630999
-6466.398936	4757.115833	1884.937500	53.448677
-6466.398936	4757.115833	1883.952148	-51.833813
-6466.398936	4757.115833	1882.965820	97.511658
-6466.398936	4757.115833	1881.980469	123.161575
-6466.398936	4757.115833	1880.994141	10.641838
-6466.398936	4757.115833	1880.007813	41.137127
-6466.398936	4757.115833	1879.021484	158.840546
-6466.398936	4757.115833	1878.035156	-101.401970
-6466.398936	4757.115833	1877.047852	-3.099825
-6466.398936	4757.115833	1876.061523	12.830455
-6466.398936	4757.115833	1875.074219	-89.881653
-6466.398936	4757.115833	1874.086914	-71.528778
-6466.398936	4757.115833	1873.098633	36.358662
-6466.398936	4757.115833	1872.111328	61.932266
-6466.398936	4757.115833	1871.123047	-26.212803
-6466.398936	4757.115833	1870.135742	16.286261
-6466.398936	4757.115833	1869.147461	22.489927
-6466.398936	4757.115833	1868.158203	101.223106
-6466.398936	4757.115833	1867.169922	-27.976091
-6466.398936	4757.115833	1866.180664	21.725239
-6466.398936	4757.115833	1865.192383	88.319321
-6466.398936	4757.115833	1864.203125	12.335820
-6466.398936	4757.115833	1863.213867	33.001175
-6466.398936	4757.115833	1862.223633	-149.219986
-6466.398936	4757.115833	1861.234375	23.585953
-6466.398936	4757.115833	1860.244141	-18.546724
-6466.398936	4757.115833	1859.253906	-65.496071
-6466.398936	4757.115833	1858.263672	-15.898115
-6466.398936	4757.115833	1857.273438	77.108902
-6466.398936	4757.115833	1856.282227	13.266666
-6466.398936	4757.115833	1855.291992	55.571869
-6466.398936	4757.115833	1854.300781	129.205933
-6466.398936	4757.115833	1853.309570	-2.134726
-6466.398936	4757.115833	1852.317383	42.544510
-6466.398936	4757.115833	1851.326172	75.151718
-6466.398936	4757.115833	1850.333984	11.351934
-6466.398936	4757.115833	1849.342773	75.263214
-6466.398936	4757.115833	1848.350586	4.250517
-6466.398936	4757.115833	1847.357422	44.043991
-6466.398936	4757.115833	1846.365234	62.146244
-6466.398936	4757.115833	1845.372070	-88.286293
-6466.398936	4757.115833	1844.379883	11.661610
-6466.398936	4757.115833	1843.386719	-95.398079
-6466.398936	4757.115833	1842.393555	62.248451
-6466.398936	4757.115833	1841.399414	-49.603489
-6466.398936	4757.115833	1840.406250	16.566103
-6466.398936	4757.115833	1839.412109	3.347672
-6466.398936	4757.115833	1838.417969	38.214317
-6466.398936	4757.115833	1837.423828	8.158160
-6466.398936	4757.115833	1836.429688	-9.875807
-6466.398936	4757.115833	1835.434570	65.804909
-6466.398936	4757.115833	1834.440430	90.999428
-6466.398936	4757.115833	1833.445313	99.363060
-6466.398936	4757.115833	1832.450195	11.654343
-6466.398936	4757.115833	1831.454102	-54.418388
-6466.398936	4757.115833	1830.458984	-17.243229
-6466.398936	4757.115833	1829.462891	12.710333
-6466.398936	4757.115833	1828.466797	109.839279
-6466.398936	4757.115833	1827.470703	-13.812517
-6466.398936	4757.115833	1826.474609	88.069077
-6466.398936	4757.115833	1825.478516	60.390961
-6466.398936	4757.115833	1824.481445	-27.233538
-6466.398936	4757.115833	1823.484375	2.646061
-6466.398936	4757.115833	1822.487305	25.315813
-6466.398936	4757.115833	1821.490234	31.193853
-6466.398936	4757.115833	1820.493164	-157.026291
-6466.398936	4757.115833	1819.495117	90.834106
-6466.398936	4757.115833	1818.498047	34.397591
-6466.398936	4757.115833	1817.500000	59.397156
-6466.398936	4757.115833	1816.500977	-9.000297
-6466.398936	4757.115833	1815.502930	75.830025
-6466.398936	4757.115833	1814.504883	67.276299
-6466.398936	4757.115833	1813.505859	56.324078
-6466.398936	4757.115833	1812.506836	-31.192772
-6466.398936	4757.115833	1811.507813	106.170982
-6466.398936	4757.115833	1810.508789	-103.312019
-6466.398936	4757.115833	1809.508789	96.167229
-6466.398936	4757.115833	1808.508789	39.754879
-6466.398936	4757.115833	1807.508789	4.867845
-6466.398936	4757.115833	1806.508789	60.798782
-6466.398936	4757.115833	1805.508789	80.859627
-6466.398936	4757.115833	1804.508789	0.569604
-6466.398936	4757.115833	1803.507813	6.285288
-6466.398936	4757.115833	1802.506836	69.302528
-6466.398936	4757.115833	1801.505859	63.047531
-6466.398936	4757.115833	1800.504883	-5.278848
-6466.398936	4757.115833	1799.502930	43.357185
-6466.398936	4757.115833	1798.501953	22.766495
-6466.398936	4757.115833	1797.500000	26.031378
-6466.398936	4757.115833	1796.498047	26.900375
-6466.398936	4757.115833	1795.496094	11.065807
-6466.398936	4757.115833	1794.493164	140.675690
-6466.398936	4757.115833	1793.491211	108.119087
-6466.398936	4757.115833	1792.488281	56.496544
-6466.398936	4757.115833	1791.485352	-23.712650
-6466.398936	4757.115833	1790.482422	-1.449471
-6466.398936	4757.115833	1789.478516	4.119849
-6466.398936	4757.115833	1788.475586	40.640087
-6466.398936	4757.115833	1787.471680	115.235863
-6466.398936	4757.115833	1786.467773	-10.193557
-6466.398936	4757.115833	1785.463867	31.038788
-6466.398936	4757.115833	1784.459961	19.887918
-6466.398936	4757.115833	1783.455078	130.081848
-6466.398936	4757.115833	1782.450195	-0.054353
-6466.398936	4757.115833	1781.445313	-54.038052
-6466.398936	4757.115833	1780.440430	6.136803
-6466.398936	4757.115833	1779.435547	25.858341
-6466.398936	4757.115833	1778.429688	33.675327
-6466.398936	4757.115833	1777.424805	24.842863
-6466.398936	4757.115833	1776.418945	-26.770973
-6466.398936	4757.115833	1775.413086	16.657518
-6466.398936	4757.115833	1774.406250	-96.716972
-6466.398936	4757.115833	1773.400391	-34.313583
-6466.398936	4757.115833	1772.393555	4.309913
-6466.398936	4757.115833	1771.386719	-33.061069
-6466.398936	4757.115833	1770.379883	-6.342101
-6466.398936	4757.115833	1769.373047	29.848621
-6466.398936	4757.115833	1768.365234	30.423302
-6466.398936	4757.115833	1767.358398	-4.595175
-6466.398936	4757.115833	1766.350586	-32.497360
-6466.398936	4757.115833	1765.342773	-8.230684
-6466.398936	4757.115833	1764.334961	16.015614
-6466.398936	4757.115833	1763.326172	66.315315
-6466.398936	4757.115833	1762.318359	-30.352530
-6466.398936	4757.115833	1761.309570	-1.411137
-6466.398936	4757.115833	1760.300781	-31.718523
-6466.398936	4757.115833	1759.291016	-109.399429
-6466.398936	4757.115833	1758.282227	106.592178
-6466.398936	4757.115833	1757.272461	-53.978027
-6466.398936	4757.115833	1756.262695	-58.258789
-6466.398936	4757.115833	1755.252930	1.354610
-6466.398936	4757.115833	1754.243164	30.171482
-6466.398936	4757.115833	1753.233398	82.625160
-6466.398936	4757.115833	1752.222656	75.909447
-6466.398936	4757.115833	1751.211914	5.329524
-6466.398936	4757.115833	1750.201172	81.368034
-6466.398936	4757.115833	1749.190430	17.883379
-6466.398936	4757.115833	1748.179688	-0.678901
-6466.398936	4757.115833	1747.167969	23.290974
-6466.398936	4757.115833	1746.156250	51.965664
-6466.398936	4757.115833	1745.144531	59.357136
-6466.398936	4757.115833	1744.132813	-1.759472
-6466.398936	4757.115833	1743.121094	111.879761
-6466.398936	4757.115833	1742.108398	-34.242634
-6466.398936	4757.115833	1741.095703	-62.295483
-6466.398936	4757.115833	1740.083008	39.454132
-6466.398936	4757.115833	1739.070313	25.532331
-6466.398936	4757.115833	1738.057617	-96.916580
-6466.398936	4757.115833	1737.043945	-80.168175
-6466.398936	4757.115833	1736.030273	12.026504
-6466.398936	4757.115833	1735.016602	26.366934
-6466.398936	4757.115833	1734.002930	24.188824
-6466.398936	4757.115833	1732.989258	-3.926025
-6466.398936	4757.115833	1731.974609	10.373242
-6466.398936	4757.115833	1730.959961	-27.176565
-6466.398936	4757.115833	1729.945313	69.542984
-6466.398936	4757.115833	1728.930664	3.712083
-6466.398936	4757.115833	1727.916016	-15.012256
-6466.398936	4757.115833	1726.900391	-31.388111
-6466.398936	4757.115833	1725.885742	-12.461271
-6466.398936	4757.115833	1724.870117	-21.794310
-6466.398936	4757.115833	1723.853516	48.860577
-6466.398936	4757.115833	1722.837891	-5.199072
-6466.398936	4757.115833	1721.822266	-12.210107
-6466.398936	4757.115833	1720.805664	-35.691883
-6466.398936	4757.115833	1719.789063	91.291512
-6466.398936	4757.115833	1718.772461	-19.196161
-6466.398936	4757.115833	1717.754883	-115.553192
-6466.398936	4757.115833	1716.738281	-0.409643
-6466.398936	4757.115833	1715.720703	124.074333
-6466.398936	4757.115833	1714.703125	-31.008556
-6466.398936	4757.115833	1713.685547	-56.883358
-6466.398936	4757.115833	1712.667969	41.679470
-6466.398936	4757.115833	1711.649414	86.200775
-6466.398936	4757.115833	1710.630859	20.384407
-6466.398936	4757.115833	1709.612305	-52.457088
-6466.398936	4757.115833	1708.593750	57.714920
-6466.398936	4757.115833	1707.575195	-29.201563
-6466.398936	4757.115833	1706.555664	38.686592
-6466.398936	4757.115833	1705.536133	38.540314
-6466.398936	4757.115833	1704.516602	43.071819
-6466.398936	4757.115833	1703.497070	-11.005446
-6466.398936	4757.115833	1702.477539	-22.891129
-6466.398936	4757.115833	1701.457031	28.475346
-6466.398936	4757.115833	1700.437500	9.538213
-6466.398936	4757.115833	1699.416992	-98.401772
-6466.398936	4757.115833	1698.395508	18.481848
-6466.398936	4757.115833	1697.375000	18.254223
-6466.398936	4757.115833	1696.354492	27.379477
-6466.398936	4757.115833	1695.333008	15.426923
-6466.398936	4757.115833	1694.311523	57.284657
-6466.398936	4757.115833	1693.290039	110.813110
-6466.398936	4757.115833	1692.267578	-57.887413
-6466.398936	4757.115833	1691.246094	-132.992386
-6466.398936	4757.115833	1690.223633	58.453110
-6466.398936	4757.115833	1689.201172	2.033991
-6466.398936	4757.115833	1688.178711	-28.664934
-6466.398936	4757.115833	1687.155273	-68.709908
-6466.398936	4757.115833	1686.132813	136.555252
-6466.398936	4757.115833	1685.109375	3.044584
-6466.398936	4757.115833	1684.085938	-46.352718
-6466.398936	4757.115833	1683.062500	37.347317
-6466.398936	4757.115833	1682.039063	1.950694
-6466.398936	4757.115833	1681.014648	24.906031
-6466.398936	4757.115833	1679.990234	22.175045
-6466.398936	4757.115833	1678.965820	89.428246
-6466.398936	4757.115833	1677.941406	-36.960484
-6466.398936	4757.115833	1676.916992	37.257488
-6466.398936	4757.115833	1675.891602	32.157951
-6466.398936	4757.115833	1674.866211	-49.880100
-6466.398936	4757.115833	1673.840820	33.593643
-6466.398936	4757.115833	1672.815430	86.732117
-6466.398936	4757.115833	1671.790039	-37.231911
-6466.398936	4757.115833	1670.763672	15.881575
-6466.398936	4757.115833	1669.737305	78.282913
-6466.398936	4757.115833	1668.710938	-59.604939
-6466.398936	4757.115833	1667.684570	91.239868
-6466.398936	4757.115833	1666.658203	18.562563
-6466.398936	4757.115833	1665.630859	-84.350426
-6466.398936	4757.115833	1664.603516	66.387794
-6466.398936	4757.115833	1663.576172	56.543941
-6466.398936	4757.115833	1662.548828	60.652073
-6466.398936	4757.115833	1661.520508	-25.942324
-6466.398936	4757.115833	1660.493164	78.140450
-6466.398936	4757.115833	1659.464844	161.253357
-6466.398936	4757.115833	1658.436523	-6.673225
-6466.398936	4757.115833	1657.408203	-51.388908
-6466.398936	4757.115833	1656.378906	59.557487
-6466.398936	4757.115833	1655.350586	-26.975779
-6466.398936	4757.115833	1654.321289	-125.095009
-6466.398936	4757.115833	1653.291992	15.966638
-6466.398936	4757.115833	1652.261719	170.894226
-6466.398936	4757.115833	1651.232422	142.403961
-6466.398936	4757.115833	1650.202148	79.109734
-6466.398936	4757.115833	1649.171875	155.036942
-6466.398936	4757.115833	1648.141602	8.248727
-6466.398936	4757.115833	1647.111328	60.958103
-6466.398936	4757.115833	1646.080078	-4.613263
-6466.398936	4757.115833	1645.049805	13.294354
-6466.398936	4757.115833	1644.018555	-19.803112
-6466.398936	4757.115833	1642.987305	58.340000
-6466.398936	4757.115833	1641.955078	50.720970
-6466.398936	4757.115833	1640.923828	82.482376
-6466.398936	4757.115833	1639.891602	7.688958
-6466.398936	4757.115833	1638.859375	101.955528
-6466.398936	4757.115833	1637.827148	85.056648
-6466.398936	4757.115833	1636.794922	86.678009
-6466.398936	4757.115833	1635.761719	53.579582
-6466.398936	4757.115833	1634.729492	13.551439
-6466.398936	4757.115833	1633.696289	49.872158
-6466.398936	4757.115833	1632.662109	81.547737
-6466.398936	4757.115833	1631.628906	173.332626
-6466.398936	4757.115833	1630.594727	13.073264
-6466.398936	4757.115833	1629.561523	107.141533
-6466.398936	4757.115833	1628.527344	57.882641
-6466.398936	4757.115833	1627.493164	128.792313
-6466.398936	4757.115833	1626.458008	61.060173
-6466.398936	4757.115833	1625.423828	74.194130
-6466.398936	4757.115833	1624.388672	133.503983
-6466.398936	4757.115833	1623.353516	236.656342
-6466.398936	4757.115833	1622.318359	205.881592
-6466.398936	4757.115833	1621.282227	172.807129
-6466.398936	4757.115833	1620.247070	211.278000
-6466.398936	4757.115833	1619.210938	247.423096
-6466.398936	4757.115833	1618.174805	161.304810
-6466.398936	4757.115833	1617.137695	243.563950
-6466.398936	4757.115833	1616.101563	136.727203
-6466.398936	4757.115833	1615.064453	182.073883
-6466.398936	4757.115833	1614.027344	155.954422
-6466.398936	4757.115833	1612.990234	277.321899
-6466.398936	4757.115833	1611.953125	165.949875
-6466.398936	4757.115833	1610.916016	144.454987
-6466.398936	4757.115833	1609.877930	221.994675
-6466.398936	4757.115833	1608.839844	237.336365
-6466.398936	4757.115833	1607.801758	227.349380
-6466.398936	4757.115833	1606.763672	231.176712
-6466.398936	4757.115833	1605.724609	147.556107
-6466.398936	4757.115833	1604.685547	57.066799
-6466.398936	4757.115833	1603.646484	228.847122
-6466.398936	4757.115833	1602.607422	228.073502
-6466.398936	4757.115833	1601.568359	130.727097
-6466.398936	4757.115833	1600.528320	244.921127
-6466.398936	4757.115833	1599.489258	188.985733
-6466.398936	4757.115833	1598.449219	172.138977
-6466.398936	4757.115833	1597.408203	180.572205
-6466.398936	4757.115833	1596.368164	216.572296
-6466.398936	4757.115833	1595.327148	140.020432
-6466.398936	4757.115833	1594.287109	182.908295
-6466.398936	4757.115833	1593.246094	202.822189
-6466.398936	4757.115833	1592.204102	213.547424
-6466.398936	4757.115833	1591.163086	226.568863
-6466.398936	4757.115833	1590.121094	218.935913
-6466.398936	4757.115833	1589.079102	213.603745
-6466.398936	4757.115833	1588.037109	288.551758
-6466.398936	4757.115833	1586.995117	262.577728
-6466.398936	4757.115833	1585.953125	183.885925
-6466.398936	4757.115833	1584.910156	309.234467
-6466.398936	4757.115833	1583.867188	248.905106
-6466.398936	4757.115833	1582.824219	179.438568
-6466.398936	4757.115833	1581.781250	181.020782
-6466.398936	4757.115833	1580.737305	184.895493
-6466.398936	4757.115833	1579.693359	268.922821
-6466.398936	4757.115833	1578.649414	316.289703
-6466.398936	4757.115833	1577.605469	329.307587
-6466.398936	4757.115833	1576.561523	324.016693
-6466.398936	4757.115833	1575.516602	327.883881
-6466.398936	4757.115833	1574.472656	228.809845
-6466.398936	4757.115833	1573.427734	287.601288
-6466.398936	4757.115833	1572.381836	289.202698
-6466.398936	4757.115833	1571.336914	370.835083
-6466.398936	4757.115833	1570.291016	333.571747
-6466.398936	4757.115833	1569.246094	246.050598
-6466.398936	4757.115833	1568.200195	284.245880
-6466.398936	4757.115833	1567.153320	425.237823
-6466.398936	4757.115833	1566.107422	330.916809
-6466.398936	4757.115833	1565.060547	337.120361
-6466.398936	4757.115833	1564.013672	318.213867
-6466.398936	4757.115833	1562.966797	383.785370
-6466.398936	4757.115833	1561.919922	396.845337
-6466.398936	4757.115833	1560.872070	279.837769
-6466.398936	4757.115833	1559.825195	356.809662
-6466.398936	4757.115833	1558.777344	454.286621
-6466.398936	4757.115833	1557.729492	355.606140
-6466.398936	4757.115833	1556.680664	177.167450
-6466.398936	4757.115833	1555.632813	249.572083
-6466.398936	4757.115833	1554.583984	292.325256
-6466.398936	4757.115833	1553.535156	328.235138
-6466.398936	4757.115833	1552.486328	343.634888
-6466.398936	4757.115833	1551.436523	299.811401
-6466.398936	4757.115833	1550.387695	153.533173
-6466.398936	4757.115833	1549.337891	219.078430
-6466.398936	4757.115833	1548.288086	184.441345
-6466.398936	4757.115833	1547.238281	193.072739
-6466.398936	4757.115833	1546.187500	122.062790
-6466.398936	4757.115833	1545.136719	14.688108
-6466.398936	4757.115833	1544.086914	93.896156
-6466.398936	4757.115833	1543.035156	129.868576
-6466.398936	4757.115833	1541.984375	99.898369
-6466.398936	4757.115833	1540.933594	176.800598
-6466.398936	4757.115833	1539.881836	49.116901
-6466.398936	4757.115833	1538.830078	19.212187
-6466.398936	4757.115833	1537.778320	0.691097
-6466.398936	4757.115833	1536.725586	-40.528717
-6466.398936	4757.115833	1535.673828	154.480331
-6466.398936	4757.115833	1534.621094	8.818065
-6466.398936	4757.115833	1533.568359	-20.991730
-6466.398936	4757.115833	1532.515625	-23.539974
-6466.398936	4757.115833	1531.461914	-60.116726
-6466.398936	4757.115833	1530.409180	48.545078
-6466.398936	4757.115833	1529.355469	-10.690713
-6466.398936	4757.115833	1528.301758	-13.190018
-6466.398936	4757.115833	1527.247070	-29.282394
-6466.398936	4757.115833	1526.193359	-47.620815
-6466.398936	4757.115833	1525.138672	54.193100
-6466.398936	4757.115833	1524.083984	-38.914635
-6466.398936	4757.115833	1523.029297	-70.795937
-6466.398936	4757.115833	1521.974609	-18.834232
-6466.398936	4757.115833	1520.918945	51.238171
-6466.398936	4757.115833	1519.863281	125.825989
-6466.398936	4757.115833	1518.807617	116.631004
-6466.398936	4757.115833	1517.751953	44.074974
-6466.398936	4757.115833	1516.696289	23.613096
-6466.398936	4757.115833	1515.639648	21.273376
-6466.398936	4757.115833	1514.583008	21.211432
-6466.398936	4757.115833	1513.526367	-91.922714
-6466.398936	4757.115833	1512.469727	27.915974
-6466.398936	4757.115833	1511.412109	52.765320
-6466.398936	4757.115833	1510.355469	9.809567
-6466.398936	4757.115833	1509.297852	-123.512955
-6466.398936	4757.115833	1508.240234	-168.647064
-6466.398936	4757.115833	1507.181641	-78.205750
-6466.398936	4757.115833	1506.124023	-62.317173
-6466.398936	4757.115833	1505.065430	-109.648834
-6466.398936	4757.115833	1504.006836	-55.348976
-6466.398936	4757.115833	1502.948242	68.920631
-6466.398936	4757.115833	1501.888672	93.855896
-6466.398936	4757.115833	1500.830078	-72.992287
-6466.398936	4757.115833	1499.770508	-38.982426
-6466.398936	4757.115833	1498.710938	1.796947
-6466.398936	4757.115833	1497.650391	-40.860302
-6466.398936	4757.115833	1496.590820	112.664948
-6466.398936	4757.115833	1495.530273	155.693024
-6466.398936	4757.115833	1494.469727	119.842339
-6466.398936	4757.115833	1493.409180	20.932344
-6466.398936	4757.115833	1492.348633	84.279045
-6466.398936	4757.115833	1491.287109	109.327271
-6466.398936	4757.115833	1490.225586	62.322346
-6466.398936	4757.115833	1489.164063	125.674026
-6466.398936	4757.115833	1488.102539	31.448809
-6466.398936	4757.115833	1487.041016	-4.207231
-6466.398936	4757.115833	1485.978516	-3.830625
-6466.398936	4757.115833	1484.916016	127.067993
-6466.398936	4757.115833	1483.853516	170.164978
-6466.398936	4757.115833	1482.791016	73.869110
-6466.398936	4757.115833	1481.727539	51.821629
-6466.398936	4757.115833	1480.664063	52.277962
-6466.398936	4757.115833	1479.600586	113.452530
-6466.398936	4757.115833	1478.537109	17.319290
-6466.398936	4757.115833	1477.473633	42.528458
-6466.398936	4757.115833	1476.409180	25.092709
-6466.398936	4757.115833	1475.344727	45.911163
-6466.398936	4757.115833	1474.280273	138.476074
-6466.398936	4757.115833	1473.215820	107.675674
-6466.398936	4757.115833	1472.151367	128.483200
-6466.398936	4757.115833	1471.085938	-52.617420
-6466.398936	4757.115833	1470.020508	-20.523540
-6466.398936	4757.115833	1468.955078	-19.782963
-6466.398936	4757.115833	1467.888672	-7.915345
-6466.398936	4757.115833	1466.823242	62.319260
-6466.398936	4757.115833	1465.756836	85.432022
-6466.398936	4757.115833	1464.690430	41.504246
-6466.398936	4757.115833	1463.624023	-4.737713
-6466.398936	4757.115833	1462.556641	119.403130
-6466.398936	4757.115833	1461.490234	108.839859
-6466.398936	4757.115833	1460.422852	17.783785
-6466.398936	4757.115833	1459.355469	47.973568
-6466.398936	4757.115833	1458.287109	243.292770
-6466.398936	4757.115833	1457.219727	208.335983
-6466.398936	4757.115833	1456.151367	146.645203
-6466.398936	4757.115833	1455.083008	67.407997
-6466.398936	4757.115833	1454.014648	28.022827
-6466.398936	4757.115833	1452.945313	77.674866
-6466.398936	4757.115833	1451.876953	43.397217
-6466.398936	4757.115833	1450.807617	99.415176
-6466.398936	4757.115833	1449.738281	85.544128
-6466.398936	4757.115833	1448.668945	68.660065
-6466.398936	4757.115833	1447.598633	167.763184
-6466.398936	4757.115833	1446.528320	111.052612
-6466.398936	4757.115833	1445.458008	144.821320
-6466.398936	4757.115833	1444.387695	77.652824
-6466.398936	4757.115833	1443.317383	43.104767
-6466.398936	4757.115833	1442.246094	101.845398
-6466.398936	4757.115833	1441.174805	62.739727
-6466.398936	4757.115833	1440.103516	90.598808
-6466.398936	4757.115833	1439.032227	154.031052
-6466.398936	4757.115833	1437.960938	86.880714
-6466.398936	4757.115833	1436.888672	81.359085
-6466.398936	4757.115833	1435.816406	-21.626928
-6466.398936	4757.115833	1434.744141	-84.273842
-6466.398936	4757.115833	1433.670898	104.879936
-6466.398936	4757.115833	1432.598633	8.480805
-6466.398936	4757.115833	1431.525391	10.570639
-6466.398936	4757.115833	1430.452148	43.657070
-6466.398936	4757.115833	1429.378906	57.130962
-6466.398936	4757.115833	1428.304688	13.447167
-6466.398936	4757.115833	1427.231445	15.245782
-6466.398936	4757.115833	1426.157227	-48.985340
-6466.398936	4757.115833	1425.083008	-108.914459
-6466.398936	4757.115833	1424.007813	-47.131317
-6466.398936	4757.115833	1422.933594	4.516711
-6466.398936	4757.115833	1421.858398	40.349651
-6466.398936	4757.115833	1420.783203	-93.201462
-6466.398936	4757.115833	1419.708008	94.655098
-6466.398936	4757.115833	1418.631836	-46.560230
-6466.398936	4757.115833	1417.555664	12.305440
-6466.398936	4757.115833	1416.479492	-60.928822
-6466.398936	4757.115833	1415.403320	-9.238626
-6466.398936	4757.115833	1414.327148	-35.188217
-6466.398936	4757.115833	1413.250000	-60.330555
-6466.398936	4757.115833	1412.173828	-35.711895
-6466.398936	4757.115833	1411.096680	-118.027466
-6466.398936	4757.115833	1410.018555	-0.851474
-6466.398936	4757.115833	1408.941406	12.764833
-6466.398936	4757.115833	1407.863281	92.498154
-6466.398936	4757.115833	1406.785156	118.138382
-6466.398936	4757.115833	1405.707031	135.324142
-6466.398936	4757.115833	1404.628906	-24.821800
-6466.398936	4757.115833	1403.549805	-80.497772
-6466.398936	4757.115833	1402.470703	37.773788
-6466.398936	4757.115833	1401.391602	8.102202
-6466.398936	4757.115833	1400.312500	-46.163704
-6466.398936	4757.115833	1399.233398	24.099550
-6466.398936	4757.115833	1398.153320	16.379034
-6466.398936	4757.115833	1397.073242	-25.387350
-6466.398936	4757.115833	1395.993164	103.026413
-6466.398936	4757.115833	1394.913086	21.061676
-6466.398936	4757.115833	1393.832031	84.387695
-6466.398936	4757.115833	1392.750977	12.902013
-6466.398936	4757.115833	1391.669922	112.174629
-6466.398936	4757.115833	1390.588867	19.891521
-6466.398936	4757.115833	1389.506836	22.010342
-6466.398936	4757.115833	1388.425781	40.693462
-6466.398936	4757.115833	1387.343750	34.063564
-6466.398936	4757.115833	1386.261719	124.816650
-6466.398936	4757.115833	1385.178711	66.009567
-6466.398936	4757.115833	1384.096680	-33.310936
-6466.398936	4757.115833	1383.013672	82.531906
-6466.398936	4757.115833	1381.930664	-5.929801
-6466.398936	4757.115833	1380.846680	-133.734604
-6466.398936	4757.115833	1379.763672	15.498822
-6466.398936	4757.115833	1378.679688	20.179544
-6466.398936	4757.115833	1377.595703	63.740238
-6466.398936	4757.115833	1376.511719	240.605621
-6466.398936	4757.115833	1375.427734	0.461384
-6466.398936	4757.115833	1374.342773	53.293011
-6466.398936	4757.115833	1373.257813	-67.489616
-6466.398936	4757.115833	1372.172852	12.913953
-6466.398936	4757.115833	1371.087891	122.629105
-6466.398936	4757.115833	1370.001953	83.219742
-6466.398936	4757.115833	1368.916992	43.815361
-6466.398936	4757.115833	1367.831055	57.399090
-6466.398936	4757.115833	1366.744141	17.225279
-6466.398936	4757.115833	1365.658203	29.507544
-6466.398936	4757.115833	1364.571289	76.628036
-6466.398936	4757.115833	1363.484375	154.287506
-6466.398936	4757.115833	1362.397461	124.802742
-6466.398936	4757.115833	1361.310547	20.825480
-6466.398936	4757.115833	1360.222656	50.835289
-6466.398936	4757.115833	1359.135742	80.354668
-6466.398936	4757.115833	1358.047852	55.083336
-6466.398936	4757.115833	1356.958984	100.583488
-6466.398936	4757.115833	1355.871094	-48.706711
-6466.398936	4757.115833	1354.782227	79.903282
-6466.398936	4757.115833	1353.693359	49.702667
-6466.398936	4757.115833	1352.604492	77.132744
-6466.398936	4757.115833	1351.515625	62.553974
-6466.398936	4757.115833	1350.425781	151.760757
-6466.398936	4757.115833	1349.335938	143.381821
-6466.398936	4757.115833	1348.246094	121.988098
-6466.398936	4757.115833	1347.156250	196.915405
-6466.398936	4757.115833	1346.066406	99.308128
-6466.398936	4757.115833	1344.975586	173.763229
-6466.398936	4757.115833	1343.884766	161.281662
-6466.398936	4757.115833	1342.793945	105.137749
-6466.398936	4757.115833	1341.702148	183.677460
-6466.398936	4757.115833	1340.611328	146.857346
-6466.398936	4757.115833	1339.519531	224.620056
-6466.398936	4757.115833	1338.427734	223.226715
-6466.398936	4757.115833	1337.334961	327.937469
-6466.398936	4757.115833	1336.243164	284.258545
-6466.398936	4757.115833	1335.150391	511.090210
-6466.398936	4757.115833	1334.057617	353.426910
-6466.398936	4757.115833	1332.964844	357.849640
-6466.398936	4757.115833	1331.871094	495.290863
-6466.398936	4757.115833	1330.778320	380.257690
-6466.398936	4757.115833	1329.684570	370.870239
-6466.398936	4757.115833	1328.590820	341.512085
-6466.398936	4757.115833	1327.496094	305.556732
-6466.398936	4757.115833	1326.402344	313.561432
-6466.398936	4757.115833	1325.307617	330.258209
-6466.398936	4757.115833	1324.212891	224.581390
-6466.398936	4757.115833	1323.117188	323.055389
-6466.398936	4757.115833	1322.022461	218.155350
-6466.398936	4757.115833	1320.926758	239.889740
-6466.398936	4757.115833	1319.831055	250.305634
-6466.398936	4757.115833	1318.735352	258.166534
-6466.398936	4757.115833	1317.638672	173.464203
-6466.398936	4757.115833	1316.542969	170.959305
-6466.398936	4757.115833	1315.446289	127.494904
-6466.398936	4757.115833	1314.349609	137.045242
-6466.398936	4757.115833	1313.251953	171.780823
-6466.398936	4757.115833	1312.155273	104.326736
-6466.398936	4757.115833	1311.057617	132.146484
-6466.398936	4757.115833	1309.959961	147.718872
-6466.398936	4757.115833	1308.862305	8.640216
-6466.398936	4757.115833	1307.763672	28.891853
-6466.398936	4757.115833	1306.665039	56.370792
-6466.398936	4757.115833	1305.566406	76.486305
-6466.398936	4757.115833	1304.467773	50.956486
-6466.398936	4757.115833	1303.369141	75.952812
-6466.398936	4757.115833	1302.269531	24.810928
-6466.398936	4757.115833	1301.169922	75.169983
-6466.398936	4757.115833	1300.070313	88.204620
-6466.398936	4757.115833	1298.970703	1.395141
-6466.398936	4757.115833	1297.870117	-23.105871
-6466.398936	4757.115833	1296.769531	37.012806
-6466.398936	4757.115833	1295.668945	52.583530
-6466.398936	4757.115833	1294.568359	34.365898
-6466.398936	4757.115833	1293.466797	68.785721
-6466.398936	4757.115833	1292.366211	137.369568
-6466.398936	4757.115833	1291.264648	59.612022
-6466.398936	4757.115833	1290.162109	28.522734
-6466.398936	4757.115833	1289.060547	108.887970
-6466.398936	4757.115833	1287.958008	169.143555
-6466.398936	4757.115833	1286.855469	93.772743
-6466.398936	4757.115833	1285.752930	67.324684
-6466.398936	4757.115833	1284.650391	105.016502
-6466.398936	4757.115833	1283.546875	206.144669
-6466.398936	4757.115833	1282.444336	66.844490
-6466.398936	4757.115833	1281.339844	205.509430
-6466.398936	4757.115833	1280.236328	96.735680
-6466.398936	4757.115833	1279.132813	182.111969
-6466.398936	4757.115833	1278.028320	110.463112
-6466.398936	4757.115833	1276.923828	52.662949
-6466.398936	4757.115833	1275.819336	96.286255
-6466.398936	4757.115833	1274.713867	41.071693
-6466.398936	4757.115833	1273.608398	80.126221
-6466.398936	4757.115833	1272.503906	-6.596787
-6466.398936	4757.115833	1271.397461	124.700081
-6466.398936	4757.115833	1270.291992	40.030354
-6466.398936	4757.115833	1269.185547	-4.417746
-6466.398936	4757.115833	1268.080078	42.628151
-6466.398936	4757.115833	1266.972656	10.636661
-6466.398936	4757.115833	1265.866211	-75.710541
-6466.398936	4757.115833	1264.759766	-4.415472
-6466.398936	4757.115833	1263.652344	-10.877367
-6466.398936	4757.115833	1262.544922	33.389099
-6466.398936	4757.115833	1261.436523	-12.822173
-6466.398936	4757.115833	1260.329102	8.954964
-6466.398936	4757.115833	1259.220703	32.945927
-6466.398936	4757.115833	1258.112305	-16.894735
-6466.398936	4757.115833	1257.003906	5.669624
-6466.398936	4757.115833	1255.895508	-18.337479
-6466.398936	4757.115833	1254.786133	-52.957085
-6466.398936	4757.115833	1253.676758	-93.229294
-6466.398936	4757.115833	1252.567383	-19.267548
-6466.398936	4757.115833	1251.458008	-38.090324
-6466.398936	4757.115833	1250.347656	-48.979866
-6466.398936	4757.115833	1249.237305	0.433390
-6466.398936	4757.115833	1248.126953	30.623158
-6466.398936	4757.115833	1247.016602	-28.070154
-6466.398936	4757.115833	1245.905273	-19.641178
-6466.398936	4757.115833	1244.793945	66.641701
-6466.398936	4757.115833	1243.682617	48.040775
-6466.398936	4757.115833	1242.571289	94.340538
-6466.398936	4757.115833	1241.459961	125.723953
-6466.398936	4757.115833	1240.347656	104.673180
-6466.398936	4757.115833	1239.235352	191.507004
-6466.398936	4757.115833	1238.123047	235.342682
-6466.398936	4757.115833	1237.009766	174.653381
-6466.398936	4757.115833	1235.897461	246.440308
-6466.398936	4757.115833	1234.784180	103.313751
-6466.398936	4757.115833	1233.670898	186.522644
-6466.398936	4757.115833	1232.556641	168.537720
-6466.398936	4757.115833	1231.443359	134.524475
-6466.398936	4757.115833	1230.329102	62.302433
-6466.398936	4757.115833	1229.214844	68.972359
-6466.398936	4757.115833	1228.099609	15.308185
-6466.398936	4757.115833	1226.985352	58.435635
-6466.398936	4757.115833	1225.870117	23.836832
-6466.398936	4757.115833	1224.754883	-20.686058
-6466.398936	4757.115833	1223.639648	-10.922738
-6466.398936	4757.115833	1222.523438	-0.596090
-6466.398936	4757.115833	1221.408203	54.969425
-6466.398936	4757.115833	1220.291992	3.586244
-6466.398936	4757.115833	1219.174805	-5.077812
-6466.398936	4757.115833	1218.058594	-35.583035
-6466.398936	4757.115833	1216.941406	-35.079395
-6466.398936	4757.115833	1215.824219	-22.499083
-6466.398936	4757.115833	1214.707031	-10.086141
-6466.398936	4757.115833	1213.589844	-79.263077
-6466.398936	4757.115833	1212.471680	22.546289
-6466.398936	4757.115833	1211.353516	26.335314
-6466.398936	4757.115833	1210.235352	-63.740871
-6466.398936	4757.115833	1209.117188	41.373745
-6466.398936	4757.115833	1207.998047	17.180141
-6466.398936	4757.115833	1206.878906	-86.177437
-6466.398936	4757.115833	1205.759766	1.503030
-6466.398936	4757.115833	1204.640625	-52.036903
-6466.398936	4757.115833	1203.520508	-43.793331
-6466.398936	4757.115833	1202.401367	-69.146294
-6466.398936	4757.115833	1201.281250	-26.446249
-6466.398936	4757.115833	1200.160156	-34.358379
-6466.398936	4757.115833	1199.040039	-98.026855
-6466.398936	4757.115833	1197.918945	-39.328033
-6466.398936	4757.115833	1196.797852	-58.188435
-6466.398936	4757.115833	1195.676758	-94.250519
-6466.398936	4757.115833	1194.555664	-62.234138
-6466.398936	4757.115833	1193.433594	-30.974037
-6466.398936	4757.115833	1192.311523	-27.201645
-6466.398936	4757.115833	1191.189453	-18.875090
-6466.398936	4757.115833	1190.066406	-47.446316
-6466.398936	4757.115833	1188.944336	-79.705650
-6466.398936	4757.115833	1187.821289	-18.060524
-6466.398936	4757.115833	1186.698242	-51.237698
-6466.398936	4757.115833	1185.574219	-32.784824
-6466.398936	4757.115833	1184.451172	-122.248062
-6466.398936	4757.115833	1183.327148	-87.373238
-6466.398936	4757.115833	1182.203125	-7.420541
-6466.398936	4757.115833	1181.078125	-25.538477
-6466.398936	4757.115833	1179.954102	-69.713577
-6466.398936	4757.115833	1178.829102	-22.889471
-6466.398936	4757.115833	1177.704102	-50.439838
-6466.398936	4757.115833	1176.579102	-106.887985
-6466.398936	4757.115833	1175.453125	-106.180031
-6466.398936	4757.115833	1174.327148	-44.568310
-6466.398936	4757.115833	1173.201172	-52.882759
-6466.398936	4757.115833	1172.075195	-6.696963
-6466.398936	4757.115833	1170.949219	72.479950
-6466.398936	4757.115833	1169.822266	60.303879
-6466.398936	4757.115833	1168.695313	114.666573
-6466.398936	4757.115833	1167.568359	87.943916
-6466.398936	4757.115833	1166.440430	96.313759
-6466.398936	4757.115833	1165.313477	148.088089
-6466.398936	4757.115833	1164.185547	305.854889
-6466.398936	4757.115833	1163.057617	289.160217
-6466.398936	4757.115833	1161.928711	236.649216
-6466.398936	4757.115833	1160.800781	381.154694
-6466.398936	4757.115833	1159.671875	450.809692
-6466.398936	4757.115833	1158.541992	376.798981
-6466.398936	4757.115833	1157.413086	471.458038
-6466.398936	4757.115833	1156.283203	438.287384
-6466.398936	4757.115833	1155.154297	519.475830
-6466.398936	4757.115833	1154.023438	475.504425
-6466.398936	4757.115833	1152.893555	442.469360
-6466.398936	4757.115833	1151.763672	441.038940
-6466.398936	4757.115833	1150.632813	497.987885
-6466.398936	4757.115833	1149.501953	508.694580
-6466.398936	4757.115833	1148.370117	396.629852
-6466.398936	4757.115833	1147.239258	337.796051
-6466.398936	4757.115833	1146.107422	404.519287
-6466.398936	4757.115833	1144.975586	378.349640
-6466.398936	4757.115833	1143.843750	293.089539
-6466.398936	4757.115833	1142.710938	253.028107
-6466.398936	4757.115833	1141.578125	334.857056
-6466.398936	4757.115833	1140.445313	91.249702
-6466.398936	4757.115833	1139.312500	158.421066
-6466.398936	4757.115833	1138.178711	102.268089
-6466.398936	4757.115833	1137.045898	107.415665
-6466.398936	4757.115833	1135.912109	79.202667
-6466.398936	4757.115833	1134.777344	66.636101
-6466.398936	4757.115833	1133.643555	74.977379
-6466.398936	4757.115833	1132.508789	152.839493
-6466.398936	4757.115833	1131.374023	147.999512
-6466.398936	4757.115833	1130.239258	100.265732
-6466.398936	4757.115833	1129.104492	93.811462
-6466.398936	4757.115833	1127.968750	147.887589
-6466.398936	4757.115833	1126.833008	110.936020
-6466.398936	4757.115833	1125.697266	96.402016
-6466.398936	4757.115833	1124.560547	119.805748
-6466.398936	4757.115833	1123.424805	27.070171
-6466.398936	4757.115833	1122.288086	52.913616
-6466.398936	4757.115833	1121.151367	73.305611
-6466.398936	4757.115833	1120.013672	38.829762
-6466.398936	4757.115833	1118.876953	-59.601639
-6466.398936	4757.115833	1117.739258	43.761906
-6466.398936	4757.115833	1116.601563	58.809639
-6466.398936	4757.115833	1115.462891	20.832666
-6466.398936	4757.115833	1114.324219	38.558147
-6466.398936	4757.115833	1113.186523	-2.049187
-6466.398936	4757.115833	1112.046875	35.617870
-6466.398936	4757.115833	1110.908203	13.188174
-6466.398936	4757.115833	1109.769531	-35.961231
-6466.398936	4757.115833	1108.629883	-58.602757
-6466.398936	4757.115833	1107.490234	137.544769
-6466.398936	4757.115833	1106.349609	43.358330
-6466.398936	4757.115833	1105.209961	117.886917
-6466.398936	4757.115833	1104.069336	144.507065
-6466.398936	4757.115833	1102.928711	127.429909
-6466.398936	4757.115833	1101.787109	147.629349
-6466.398936	4757.115833	1100.646484	176.127823
-6466.398936	4757.115833	1099.504883	168.986130
-6466.398936	4757.115833	1098.363281	259.597351
-6466.398936	4757.115833	1097.221680	113.115059
-6466.398936	4757.115833	1096.079102	58.717686
-6466.398936	4757.115833	1094.936523	27.815918
-6466.398936	4757.115833	1093.793945	43.114113
-6466.398936	4757.115833	1092.651367	99.779533
-6466.398936	4757.115833	1091.507813	23.961040
-6466.398936	4757.115833	1090.364258	45.382351
-6466.398936	4757.115833	1089.220703	26.637478
-6466.398936	4757.115833	1088.077148	31.911018
-6466.398936	4757.115833	1086.933594	68.672722
-6466.398936	4757.115833	1085.789063	-26.356550
-6466.398936	4757.115833	1084.644531	81.206635
-6466.398936	4757.115833	1083.499023	-91.276260
-6466.398936	4757.115833	1082.354492	11.690659
-6466.398936	4757.115833	1081.208984	-17.674091
-6466.398936	4757.115833	1080.063477	43.560074
-6466.398936	4757.115833	1078.917969	17.031620
-6466.398936	4757.115833	1077.771484	35.597836
-6466.398936	4757.115833	1076.625977	61.357971
-6466.398936	4757.115833	1075.479492	75.847122
-6466.398936	4757.115833	1074.332031	-10.170542
-6466.398936	4757.115833	1073.185547	47.726070
-6466.398936	4757.115833	1072.038086	86.996811
-6466.398936	4757.115833	1070.890625	73.931953
-6466.398936	4757.115833	1069.743164	27.057438
-6466.398936	4757.115833	1068.594727	60.105740
-6466.398936	4757.115833	1067.447266	27.341290
-6466.398936	4757.115833	1066.298828	-5.180427
-6466.398936	4757.115833	1065.149414	119.192474
-6466.398936	4757.115833	1064.000977	56.206657
-6466.398936	4757.115833	1062.851563	77.155113
-6466.398936	4757.115833	1061.702148	73.583809
-6466.398936	4757.115833	1060.552734	128.788712
-6466.398936	4757.115833	1059.402344	86.323524
-6466.398936	4757.115833	1058.252930	72.847610
-6466.398936	4757.115833	1057.102539	124.002998
-6466.398936	4757.115833	1055.951172	17.166204
-6466.398936	4757.115833	1054.800781	50.148716
-6466.398936	4757.115833	1053.649414	84.845215
-6466.398936	4757.115833	1052.498047	62.658688
-6466.398936	4757.115833	1051.346680	68.920502
-6466.398936	4757.115833	1050.194336	64.200195
-6466.398936	4757.115833	1049.042969	2.856454
-6466.398936	4757.115833	1047.890625	11.567843
-6466.398936	4757.115833	1046.738281	109.798172
-6466.398936	4757.115833	1045.584961	121.978523
-6466.398936	4757.115833	1044.431641	94.411850
-6466.398936	4757.115833	1043.278320	-14.988203
-6466.398936	4757.115833	1042.125000	84.697876
-6466.398936	4757.115833	1040.971680	43.552212
-6466.398936	4757.115833	1039.817383	49.523441
-6466.398936	4757.115833	1038.663086	-22.483898
-6466.398936	4757.115833	1037.508789	25.213387
-6466.398936	4757.115833	1036.353516	34.227497
-6466.398936	4757.115833	1035.198242	4.295274
-6466.398936	4757.115833	1034.042969	-13.223577
-6466.398936	4757.115833	1032.887695	151.808243
-6466.398936	4757.115833	1031.732422	20.797312
-6466.398936	4757.115833	1030.576172	96.736183
-6466.398936	4757.115833	1029.419922	81.500648
-6466.398936	4757.115833	1028.263672	23.656719
-6466.398936	4757.115833	1027.106445	141.201324
-6466.398936	4757.115833	1025.949219	-1.918940
-6466.398936	4757.115833	1024.792969	58.700584
-6466.398936	4757.115833	1023.634766	31.618082
-6466.398936	4757.115833	1022.477539	-123.768387
-6466.398936	4757.115833	1021.319336	52.927731
-6466.398936	4757.115833	1020.161133	54.866692
-6466.398936	4757.115833	1019.002930	1.551046
-6466.398936	4757.115833	1017.843750	35.772846
-6466.398936	4757.115833	1016.684570	-42.937504
-6466.398936	4757.115833	1015.525391	32.889584
-6466.398936	4757.115833	1014.366211	94.111626
-6466.398936	4757.115833	1013.207031	121.016823
-6466.398936	4757.115833	1012.046875	61.504623
-6466.398936	4757.115833	1010.886719	45.328854
-6466.398936	4757.115833	1009.726563	41.083363
-6466.398936	4757.115833	1008.565430	-80.650269
-6466.398936	4757.115833	1007.404297	-3.275677
-6466.398936	4757.115833	1006.243164	-24.277864
-6466.398936	4757.115833	1005.082031	61.805187
-6466.398936	4757.115833	1003.920898	-20.999550
-6466.398936	4757.115833	1002.758789	-14.941336
-6466.398936	4757.115833	1001.596680	7.793994
-6466.398936	4757.115833	1000.433594	-103.207130
-6466.398936	4757.115833	999.271484	22.733585
-6466.398936	4757.115833	998.108398	92.063545
-6466.398936	4757.115833	996.945313	53.583996
-6466.398936	4757.115833	995.782227	6.509885
-6466.398936	4757.115833	994.618164	46.317039
-6466.398936	4757.115833	993.454102	-37.760189
-6466.398936	4757.115833	992.290039	19.889397
-6466.398936	4757.115833	991.125977	56.289833
-6466.398936	4757.115833	989.960938	43.258728
-6466.398936	4757.115833	988.796875	10.335028
-6466.398936	4757.115833	987.630859	53.977917
-6466.398936	4757.115833	986.465820	34.380775
-6466.398936	4757.115833	985.300781	-18.981808
-6466.398936	4757.115833	984.134766	-6.423336
-6466.398936	4757.115833	982.968750	91.254677
-6466.398936	4757.115833	981.801758	-38.156048
-6466.398936	4757.115833	980.635742	0.893715
-6466.398936	4757.115833	979.468750	-13.184352
-6466.398936	4757.115833	978.301758	35.068996
-6466.398936	4757.115833	977.133789	67.190338
-6466.398936	4757.115833	975.966797	-32.845551
-6466.398936	4757.115833	974.798828	-94.113319
-6466.398936	4757.115833	973.630859	43.213463
-6466.398936	4757.115833	972.461914	-19.213398
-6466.398936	4757.115833	971.293945	117.787437
-6466.398936	4757.115833	970.125000	42.015072
-6466.398936	4757.115833	968.956055	-65.149857
-6466.398936	4757.115833	967.786133	-13.337275
-6466.398936	4757.115833	966.617188	-57.317017
-6466.398936	4757.115833	965.447266	22.915577
-6466.398936	4757.115833	964.276367	22.485859
-6466.398936	4757.115833	963.106445	34.162827
-6466.398936	4757.115833	961.935547	36.761681
-6466.398936	4757.115833	960.764648	-80.183617
-6466.398936	4757.115833	959.593750	52.375633
-6466.398936	4757.115833	958.422852	-106.993088
-6466.398936	4757.115833	957.250977	-90.006401
-6466.398936	4757.115833	956.079102	-76.094933
-6466.398936	4757.115833	954.907227	0.494344
-6466.398936	4757.115833	953.734375	35.715958
-6466.398936	4757.115833	952.562500	-44.223354
-6466.398936	4757.115833	951.389648	-40.000591
-6466.398936	4757.115833	950.215820	-37.732834
-6466.398936	4757.115833	949.042969	-7.317104
-6466.398936	4757.115833	947.869141	-33.003159
-6466.398936	4757.115833	946.695313	-58.581497
-6466.398936	4757.115833	945.521484	-45.372334
-6466.398936	4757.115833	944.346680	4.807363
-6466.398936	4757.115833	943.172852	-46.969955
-6466.398936	4757.115833	941.998047	-44.506283
-6466.398936	4757.115833	940.822266	-9.564713
-6466.398936	4757.115833	939.647461	58.338093
-6466.398936	4757.115833	938.471680	-100.466560
-6466.398936	4757.115833	937.295898	-21.811186
-6466.398936	4757.115833	936.119141	35.107613
-6466.398936	4757.115833	934.943359	-77.852081
-6466.398936	4757.115833	933.766602	-18.811361
-6466.398936	4757.115833	932.589844	86.026901
-6466.398936	4757.115833	931.413086	105.976990
-6466.398936	4757.115833	930.235352	30.053009
-6466.398936	4757.115833	929.057617	10.753476
-6466.398936	4757.115833	927.879883	-45.531876
-6466.398936	4757.115833	926.702148	124.512215
-6466.398936	4757.115833	925.523438	68.217468
-6466.398936	4757.115833	924.344727	9.786506
-6466.398936	4757.115833	923.166016	-33.399742
-6466.398936	4757.115833	921.987305	25.639265
-6466.398936	4757.115833	920.807617	43.351948
-6466.398936	4757.115833	919.627930	44.363277
-6466.398936	4757.115833	919.497070	56.825798
-6466.398936	4757.115833	918.331055	28.878750
-6466.398936	4757.115833	917.165039	66.134972
-6466.398936	4757.115833	915.999023	44.720737
-6466.398936	4757.115833	914.833008	-30.984482
-6466.398936	4757.115833	913.666016	-41.505665
-6466.398936	4757.115833	912.499023	134.704254
-6466.398936	4757.115833	911.332031	-64.696701
-6466.398936	4757.115833	910.165039	55.023933
-6466.398936	4757.115833	908.997070	7.619032
-6466.398936	4757.115833	907.830078	-50.611557
-6466.398936	4757.115833	906.661133	6.143639
-6466.398936	4757.115833	905.493164	58.541016
-6466.398936	4757.115833	904.325195	22.027533
-6466.398936	4757.115833	903.156250	-57.820213
-6466.398936	4757.115833	901.987305	33.579475
-6466.398936	4757.115833	900.818359	-31.063402
-6466.398936	4757.115833	899.648438	42.970581
-6466.398936	4757.115833	898.478516	77.991623
-6466.398936	4757.115833	897.308594	52.369148
-6466.398936	4757.115833	896.138672	50.575844
-6466.398936	4757.115833	894.968750	-55.112873
-6466.398936	4757.115833	893.797852	-20.084742
-6466.398936	4757.115833	892.626953	8.441845
-6466.398936	4757.115833	891.456055	15.327996
-6466.398936	4757.115833	890.284180	-31.854557
-6466.398936	4757.115833	889.113281	-111.450378
-6466.398936	4757.115833	887.941406	-85.074326
-6466.398936	4757.115833	886.768555	-4.666802
-6466.398936	4757.115833	885.596680	-60.435192
-6466.398936	4757.115833	884.423828	-16.788286
-6466.398936	4757.115833	883.250977	31.165344
-6466.398936	4757.115833	882.078125	53.186451
-6466.398936	4757.115833	880.905273	-19.806017
-6466.398936	4757.115833	879.731445	10.860761
-6466.398936	4757.115833	878.557617	2.667790
-6466.398936	4757.115833	877.383789	11.745688
-6466.398936	4757.115833	876.209961	-0.751249
-6466.398936	4757.115833	875.035156	-6.766904
-6466.398936	4757.115833	873.860352	56.236351
-6466.398936	4757.115833	872.685547	9.251677
-6466.398936	4757.115833	871.510742	54.987556
-6466.398936	4757.115833	870.334961	55.448109
-6466.398936	4757.115833	869.159180	81.771042
-6466.398936	4757.115833	867.983398	39.145298
-6466.398936	4757.115833	866.807617	13.772769
-6466.398936	4757.115833	865.630859	1.336774
-6466.398936	4757.115833	864.454102	3.981345
-6466.398936	4757.115833	863.277344	62.598057
-6466.398936	4757.115833	862.100586	20.040154
-6466.398936	4757.115833	860.922852	-50.468513
-6466.398936	4757.115833	859.745117	61.919189
-6466.398936	4757.115833	858.567383	-19.316303
-6466.398936	4757.115833	857.389648	114.530785
-6466.398936	4757.115833	856.210938	63.426487
-6466.398936	4757.115833	855.032227	-65.037941
-6466.398936	4757.115833	853.853516	-77.393051
-6466.398936	4757.115833	852.674805	-72.549789
-6466.398936	4757.115833	851.495117	-102.076050
-6466.398936	4757.115833	850.315430	-77.891571
-6466.398936	4757.115833	849.135742	-77.334564
-6466.398936	4757.115833	847.956055	-115.419228
-6466.398936	4757.115833	846.775391	-20.401945
-6466.398936	4757.115833	845.595703	-52.037968
-6466.398936	4757.115833	844.415039	-10.706193
-6466.398936	4757.115833	843.233398	11.305969
-6466.398936	4757.115833	842.052734	33.311344
-6466.398936	4757.115833	840.871094	23.147364
-6466.398936	4757.115833	839.689453	-42.749577
-6466.398936	4757.115833	838.506836	90.720848
-6466.398936	4757.115833	837.325195	76.273788
-6466.398936	4757.115833	836.142578	-49.574627
-6466.398936	4757.115833	834.959961	58.117859
-6466.398936	4757.115833	833.777344	103.660973
-6466.398936	4757.115833	832.593750	187.730225
-6466.398936	4757.115833	831.410156	183.996353
-6466.398936	4757.115833	830.226563	143.880905
-6466.398936	4757.115833	829.042969	197.938477
-6466.398936	4757.115833	827.858398	91.519371
-6466.398936	4757.115833	826.673828	89.956680
-6466.398936	4757.115833	825.489258	-9.976750
-6466.398936	4757.115833	824.304688	7.728734
-6466.398936	4757.115833	823.120117	55.355743
-6466.398936	4757.115833	821.934570	149.984558
-6466.398936	4757.115833	820.749023	212.524185
-6466.398936	4757.115833	819.562500	153.268539
-6466.398936	4757.115833	818.376953	17.145052
-6466.398936	4757.115833	817.190430	39.104221
-6466.398936	4757.115833	816.003906	103.755463
-6466.398936	4757.115833	814.817383	-2.385718
-6466.398936	4757.115833	813.629883	40.908653
-6466.398936	4757.115833	812.442383	-88.643860
-6466.398936	4757.115833	811.254883	14.382399
-6466.398936	4757.115833	810.067383	-29.797621
-6466.398936	4757.115833	808.878906	58.248890
-6466.398936	4757.115833	807.690430	-2.976333
-6466.398936	4757.115833	806.501953	95.685501
-6466.398936	4757.115833	805.313477	-48.633663
-6466.398936	4757.115833	804.124023	18.038271
-6466.398936	4757.115833	802.934570	31.427641
-6466.398936	4757.115833	801.745117	0.086545
-6466.398936	4757.115833	800.555664	9.214051
-6466.398936	4757.115833	799.365234	-19.981665
-6466.398936	4757.115833	798.175781	46.611149
-6466.398936	4757.115833	796.985352	21.673393
-6466.398936	4757.115833	795.793945	37.168530
-6466.398936	4757.115833	794.603516	171.771301
-6466.398936	4757.115833	793.412109	112.792961
-6466.398936	4757.115833	792.220703	147.390030
-6466.398936	4757.115833	791.028320	139.456421
-6466.398936	4757.115833	789.836914	-68.257912
-6466.398936	4757.115833	788.644531	27.970879
-6466.398936	4757.115833	787.452148	30.681604
-6466.398936	4757.115833	786.258789	-15.462764
-6466.398936	4757.115833	785.066406	-108.310173
-6466.398936	4757.115833	783.873047	26.052641
-6466.398936	4757.115833	782.679688	-111.346970
-6466.398936	4757.115833	781.485352	-66.179070
-6466.398936	4757.115833	780.291992	-122.881424
-6466.398936	4757.115833	779.097656	-120.164833
-6466.398936	4757.115833	777.903320	-38.979481
-6466.398936	4757.115833	776.708008	37.927902
-6466.398936	4757.115833	775.512695	6.676717
-6466.398936	4757.115833	774.318359	24.183743
-6466.398936	4757.115833	773.122070	113.731804
-6466.398936	4757.115833	771.926758	10.433449
-6466.398936	4757.115833	770.730469	-3.858715
-6466.398936	4757.115833	769.534180	-7.561401
-6466.398936	4757.115833	768.337891	41.666992
-6466.398936	4757.115833	767.141602	46.412689
-6466.398936	4757.115833	765.944336	85.015564
-6466.398936	4757.115833	764.747070	68.578209
-6466.398936	4757.115833	763.549805	-43.062428
-6466.398936	4757.115833	762.351563	20.898844
-6466.398936	4757.115833	761.154297	23.497520
-6466.398936	4757.115833	759.956055	108.547295
-6466.398936	4757.115833	758.757813	5.419570
-6466.398936	4757.115833	757.558594	88.310379
-6466.398936	4757.115833	756.359375	141.576721
-6466.398936	4757.115833	755.160156	139.886627
-6466.398936	4757.115833	753.960938	127.628532
-6466.398936	4757.115833	752.761719	134.372055
-6466.398936	4757.115833	751.561523	147.438690
-6466.398936	4757.115833	750.361328	149.937180
-6466.398936	4757.115833	749.160156	211.516113
-6466.398936	4757.115833	747.959961	194.992401
-6466.398936	4757.115833	746.758789	269.174438
-6466.398936	4757.115833	745.557617	183.029175
-6466.398936	4757.115833	744.356445	204.447983
-6466.398936	4757.115833	743.154297	166.820389
-6466.398936	4757.115833	741.952148	287.276459
-6466.398936	4757.115833	740.750000	148.477081
-6466.398936	4757.115833	739.547852	239.369568
-6466.398936	4757.115833	738.344727	275.447418
-6466.398936	4757.115833	737.142578	231.472000
-6466.398936	4757.115833	735.939453	187.504257
-6466.398936	4757.115833	734.735352	166.699707
-6466.398936	4757.115833	733.532227	99.589066
-6466.398936	4757.115833	732.328125	165.059128
-6466.398936	4757.115833	731.124023	116.886765
-6466.398936	4757.115833	729.918945	171.785110
-6466.398936	4757.115833	728.714844	98.371658
-6466.398936	4757.115833	727.509766	172.146652
-6466.398936	4757.115833	726.303711	113.452606
-6466.398936	4757.115833	725.098633	172.456146
-6466.398936	4757.115833	723.892578	231.421844
-6466.398936	4757.115833	722.686523	174.811462
-6466.398936	4757.115833	721.480469	185.418243
-6466.398936	4757.115833	720.274414	126.712921
-6466.398936	4757.115833	719.067383	315.742310
-6466.398936	4757.115833	717.860352	286.390320
-6466.398936	4757.115833	716.653320	313.694305
-6466.398936	4757.115833	715.445313	372.442810
-6466.398936	4757.115833	714.238281	456.321899
-6466.398936	4757.115833	713.030273	435.292511
-6466.398936	4757.115833	711.821289	265.389526
-6466.398936	4757.115833	710.613281	330.324341
-6466.398936	4757.115833	709.404297	263.178101
-6466.398936	4757.115833	708.195313	214.902267
-6466.398936	4757.115833	706.986328	294.422394
-6466.398936	4757.115833	705.776367	145.589630
-6466.398936	4757.115833	704.566406	63.813168
-6466.398936	4757.115833	703.356445	21.832563
-6466.398936	4757.115833	702.146484	-7.588689
-6466.398936	4757.115833	700.935547	126.220543
-6466.398936	4757.115833	699.724609	8.876823
-6466.398936	4757.115833	698.513672	-66.598068
-6466.398936	4757.115833	697.302734	33.621632
-6466.398936	4757.115833	696.090820	117.053192
-6466.398936	4757.115833	694.878906	31.094975
-6466.398936	4757.115833	693.666992	70.561752
-6466.398936	4757.115833	692.455078	-36.285416
-6466.398936	4757.115833	691.242188	15.676171
-6466.398936	4757.115833	690.029297	-47.287872
-6466.398936	4757.115833	688.816406	0.438263
-6466.398936	4757.115833	687.602539	-4.073304
-6466.398936	4757.115833	686.389648	35.234119
-6466.398936	4757.115833	685.175781	-34.021694
-6466.398936	4757.115833	683.960938	42.794563
-6466.398936	4757.115833	682.747070	15.249206
-6466.398936	4757.115833	681.532227	54.438438
-6466.398936	4757.115833	680.317383	60.225445
-6466.398936	4757.115833	679.102539	38.885963
-6466.398936	4757.115833	677.886719	42.547676
-6466.398936	4757.115833	676.670898	69.110443
-6466.398936	4757.115833	675.455078	49.802654
-6466.398936	4757.115833	674.239258	188.797287
-6466.398936	4757.115833	673.022461	129.858688
-6466.398936	4757.115833	671.805664	195.856522
-6466.398936	4757.115833	670.588867	43.217186
-6466.398936	4757.115833	669.372070	92.510902
-6466.398936	4757.115833	668.154297	110.547852
-6466.398936	4757.115833	666.936523	113.991982
-6466.398936	4757.115833	665.718750	100.771667
-6466.398936	4757.115833	664.500977	-66.355125
-6466.398936	4757.115833	663.282227	3.589459
-6466.398936	4757.115833	662.063477	127.528244
-6466.398936	4757.115833	660.844727	12.390113
-6466.398936	4757.115833	659.625000	117.528610
-6466.398936	4757.115833	658.405273	129.116638
-6466.398936	4757.115833	657.185547	97.060608
-6466.398936	4757.115833	655.965820	121.061157
-6466.398936	4757.115833	654.745117	43.300159
-6466.398936	4757.115833	653.525391	19.515512
-6466.398936	4757.115833	652.303711	122.304878
-6466.398936	4757.115833	651.083008	44.522911
-6466.398936	4757.115833	649.861328	143.067993
-6466.398936	4757.115833	648.640625	-5.244411
-6466.398936	4757.115833	647.417969	26.871634
-6466.398936	4757.115833	646.196289	81.754425
-6466.398936	4757.115833	644.973633	-8.490266
-6466.398936	4757.115833	643.750977	81.555359
-6466.398936	4757.115833	642.528320	14.090280
-6466.398936	4757.115833	641.305664	-1.588384
-6466.398936	4757.115833	640.082031	5.494778
-6466.398936	4757.115833	638.858398	87.084808
-6466.398936	4757.115833	637.634766	34.070404
-6466.398936	4757.115833	636.410156	22.444515
-6466.398936	4757.115833	635.185547	39.766953
-6466.398936	4757.115833	633.960938	139.803619
-6466.398936	4757.115833	632.736328	188.069473
-6466.398936	4757.115833	631.510742	83.277122
-6466.398936	4757.115833	630.285156	195.573639
-6466.398936	4757.115833	629.059570	185.853622
-6466.398936	4757.115833	627.833984	114.121056
-6466.398936	4757.115833	626.607422	110.572884
-6466.398936	4757.115833	625.380859	158.642166
-6466.398936	4757.115833	624.154297	281.012329
-6466.398936	4757.115833	622.927734	85.345604
-6466.398936	4757.115833	621.700195	168.411880
-6466.398936	4757.115833	620.472656	156.484634
-6466.398936	4757.115833	619.245117	158.983170
-6466.398936	4757.115833	618.016602	93.380264
-6466.398936	4757.115833	616.788086	143.282455
-6466.398936	4757.115833	615.559570	79.727737
-6466.398936	4757.115833	614.331055	7.931085
-6466.398936	4757.115833	613.101563	-28.818140
-6466.398936	4757.115833	611.872070	39.524223
-6466.398936	4757.115833	610.642578	21.282558
-6466.398936	4757.115833	609.413086	-25.811283
-6466.398936	4757.115833	608.182617	1.231971
-6466.398936	4757.115833	606.952148	38.537144
-6466.398936	4757.115833	605.721680	5.814135
-6466.398936	4757.115833	604.491211	-22.799894
-6466.398936	4757.115833	603.259766	59.691124
-6466.398936	4757.115833	602.028320	156.526840
-6466.398936	4757.115833	600.796875	136.062958
-6466.398936	4757.115833	599.564453	156.713715
-6466.398936	4757.115833	598.332031	134.160965
-6466.398936	4757.115833	597.099609	121.875435
-6466.398936	4757.115833	595.867188	111.630287
-6466.398936	4757.115833	594.633789	78.768219
-6466.398936	4757.115833	593.400391	113.688713
-6466.398936	4757.115833	592.166992	171.166443
-6466.398936	4757.115833	590.933594	148.521973
-6466.398936	4757.115833	589.699219	310.626068
-6466.398936	4757.115833	588.464844	250.979828
-6466.398936	4757.115833	587.230469	334.980774
-6466.398936	4757.115833	585.995117	462.009613
-6466.398936	4757.115833	584.760742	426.929565
-6466.398936	4757.115833	583.525391	518.988586
-6466.398936	4757.115833	582.289063	440.819763
-6466.398936	4757.115833	581.053711	709.086670
-6466.398936	4757.115833	579.817383	719.000916
-6466.398936	4757.115833	578.581055	749.384216
-6466.398936	4757.115833	577.343750	722.379822
-6466.398936	4757.115833	576.107422	801.871826
-6466.398936	4757.115833	574.870117	774.837341
-6466.398936	4757.115833	573.631836	749.845825
-6466.398936	4757.115833	572.394531	554.971375
-6466.398936	4757.115833	571.156250	509.546112
-6466.398936	4757.115833	569.917969	494.814545
-6466.398936	4757.115833	568.679688	568.029968
-6466.398936	4757.115833	567.440430	434.654877
-6466.398936	4757.115833	566.202148	434.222260
-6466.398936	4757.115833	564.961914	390.848419
-6466.398936	4757.115833	563.722656	206.467636
-6466.398936	4757.115833	562.482422	191.743668
-6466.398936	4757.115833	561.243164	174.973312
-6466.398936	4757.115833	560.001953	78.544235
-6466.398936	4757.115833	558.761719	137.335220
-6466.398936	4757.115833	557.520508	234.879074
-6466.398936	4757.115833	556.279297	211.948349
-6466.398936	4757.115833	555.038086	44.133301
-6466.398936	4757.115833	553.795898	190.571136
-6466.398936	4757.115833	552.554688	151.321259
-6466.398936	4757.115833	551.311523	99.841751
-6466.398936	4757.115833	550.069336	158.478363
-6466.398936	4757.115833	548.826172	74.390068
-6466.398936	4757.115833	547.583984	86.119957
-6466.398936	4757.115833	546.339844	-48.870014
-6466.398936	4757.115833	545.096680	103.431244
-6466.398936	4757.115833	543.852539	74.393867
-6466.398936	4757.115833	542.608398	-60.521774
-6466.398936	4757.115833	541.364258	77.418419
-6466.398936	4757.115833	540.119141	40.249813
-6466.398936	4757.115833	538.875000	-31.498840
-6466.398936	4757.115833	537.628906	90.057701
-6466.398936	4757.115833	536.383789	-12.188785
-6466.398936	4757.115833	535.137695	-53.385044
-6466.398936	4757.115833	533.892578	-39.666882
-6466.398936	4757.115833	532.645508	12.664673
-6466.398936	4757.115833	531.399414	-56.966137
-6466.398936	4757.115833	530.152344	-69.675301
-6466.398936	4757.115833	528.905273	-68.158173
-6466.398936	4757.115833	527.658203	-139.758316
-6466.398936	4757.115833	526.410156	46.559143
-6466.398936	4757.115833	525.163086	-98.117966
-6466.398936	4757.115833	523.914063	-11.344099
-6466.398936	4757.115833	522.666016	-36.214825
-6466.398936	4757.115833	521.416992	-128.025803
-6466.398936	4757.115833	520.167969	19.560503
-6466.398936	4757.115833	518.918945	12.959812
-6466.398936	4757.115833	517.669922	34.752369
-6466.398936	4757.115833	516.419922	-22.519390
-6466.398936	4757.115833	515.169922	-45.307487
-6466.398936	4757.115833	513.919922	67.678505
-6466.398936	4757.115833	512.668945	-44.245281
-6466.398936	4757.115833	511.417969	7.941248
-6466.398936	4757.115833	510.166992	-55.309872
-6466.398936	4757.115833	508.916016	59.630142
-6466.398936	4757.115833	507.664063	-1.567864
-6466.398936	4757.115833	506.412109	-26.306450
-6466.398936	4757.115833	505.160156	13.716478
-6466.398936	4757.115833	503.907227	-43.363888
-6466.398936	4757.115833	502.655273	-61.985428
-6466.398936	4757.115833	501.402344	131.708588
-6466.398936	4757.115833	500.148438	16.042910
-6466.398936	4757.115833	498.895508	11.594487
-6466.398936	4757.115833	497.641602	45.547924
-6466.398936	4757.115833	496.387695	37.073502
-6466.398936	4757.115833	495.132813	30.631577
-6466.398936	4757.115833	493.878906	92.860229
-6466.398936	4757.115833	492.624023	19.808094
-6466.398936	4757.115833	491.368164	-6.779018
-6466.398936	4757.115833	490.113281	43.341118
-6466.398936	4757.115833	488.857422	8.712496
-6466.398936	4757.115833	487.601563	16.469818
-6466.398936	4757.115833	486.344727	-72.566513
-6466.398936	4757.115833	485.088867	-4.284554
-6466.398936	4757.115833	483.832031	1.488591
-6466.398936	4757.115833	482.575195	-117.682571
-6466.398936	4757.115833	481.317383	-27.237442
-6466.398936	4757.115833	480.059570	-49.632095
-6466.398936	4757.115833	478.801758	-88.117783
-6466.398936	4757.115833	477.543945	18.407011
-6466.398936	4757.115833	476.285156	-22.067749
-6466.398936	4757.115833	475.027344	-10.179988
-6466.398936	4757.115833	473.767578	58.057198
-6466.398936	4757.115833	472.508789	-30.651264
-6466.398936	4757.115833	471.249023	-8.680636
-6466.398936	4757.115833	469.989258	-24.917953
-6466.398936	4757.115833	468.729492	-0.925736
-6466.398936	4757.115833	467.469727	2.964669
-6466.398936	4757.115833	466.208984	24.950089
-6466.398936	4757.115833	464.948242	-33.436272
-6466.398936	4757.115833	463.686523	18.698404
-6466.398936	4757.115833	462.425781	8.559187
-6466.398936	4757.115833	461.164063	-3.576499
-6466.398936	4757.115833	459.901367	-21.722824
-6466.398936	4757.115833	458.639648	-7.738602
-6466.398936	4757.115833	457.376953	62.432804
-6466.398936	4757.115833	456.114258	86.435593
-6466.398936	4757.115833	454.851563	48.252960
-6466.398936	4757.115833	453.587891	44.182217
-6466.398936	4757.115833	452.324219	56.156719
-6466.398936	4757.115833	451.060547	68.129005
-6466.398936	4757.115833	449.796875	17.971470
-6466.398936	4757.115833	448.532227	-24.149605
-6466.398936	4757.115833	447.267578	92.003105
-6466.398936	4757.115833	446.002930	49.883884
-6466.398936	4757.115833	444.737305	3.775292
-6466.398936	4757.115833	443.471680	19.743347
-6466.398936	4757.115833	442.206055	-14.337187
-6466.398936	4757.115833	440.940430	19.627634
-6466.398936	4757.115833	439.673828	-58.465134
-6466.398936	4757.115833	438.407227	-32.522366
-6466.398936	4757.115833	437.140625	-10.599960
-6466.398936	4757.115833	435.873047	-22.688047
-6466.398936	4757.115833	434.605469	27.182297
-6466.398936	4757.115833	433.337891	49.037727
-6466.398936	4757.115833	432.070313	-5.057573
-6466.398936	4757.115833	430.801758	44.726501
-6466.398936	4757.115833	429.533203	-11.381125
-6466.398936	4757.115833	428.264648	26.360508
-6466.398936	4757.115833	426.996094	10.161282
-6466.398936	4757.115833	425.726563	19.888271
-6466.398936	4757.115833	424.457031	35.568977
-6466.398936	4757.115833	423.186523	117.046089
-6466.398936	4757.115833	421.916992	90.749100
-6466.398936	4757.115833	420.646484	118.268539
-6466.398936	4757.115833	419.375977	161.687576
-6466.398936	4757.115833	418.104492	213.018829
-6466.398936	4757.115833	416.833008	262.291351
-6466.398936	4757.115833	415.561523	126.201790
-6466.398936	4757.115833	414.290039	45.897121
-6466.398936	4757.115833	413.017578	186.635300
-6466.398936	4757.115833	411.746094	28.590914
-6466.398936	4757.115833	410.472656	67.630692
-6466.398936	4757.115833	409.200195	-24.763666
-6466.398936	4757.115833	407.926758	129.552078
-6466.398936	4757.115833	406.653320	154.421417
-6466.398936	4757.115833	405.379883	99.648766
-6466.398936	4757.115833	404.105469	110.442139
-6466.398936	4757.115833	402.831055	61.507114
-6466.398936	4757.115833	401.556641	76.113586
-6466.398936	4757.115833	400.282227	92.611427
-6466.398936	4757.115833	399.006836	83.178329
-6466.398936	4757.115833	397.731445	45.842136
-6466.398936	4757.115833	396.456055	169.279953
-6466.398936	4757.115833	395.179688	181.366364
-6466.398936	4757.115833	393.903320	50.409794
-6466.398936	4757.115833	392.626953	84.117928
-6466.398936	4757.115833	391.350586	232.773056
-6466.398936	4757.115833	390.073242	137.228546
-6466.398936	4757.115833	388.795898	134.809204
-6466.398936	4757.115833	387.518555	183.807571
-6466.398936	4757.115833	386.240234	85.933228
-6466.398936	4757.115833	384.961914	104.891388
-6466.398936	4757.115833	383.683594	115.758087
-6466.398936	4757.115833	382.405273	43.246891
-6466.398936	4757.115833	381.125977	115.189514
-6466.398936	4757.115833	379.846680	50.281948
-6466.398936	4757.115833	378.567383	115.892532
-6466.398936	4757.115833	377.287109	195.137192
-6466.398936	4757.115833	376.006836	98.015244
-6466.398936	4757.115833	374.726563	222.334915
-6466.398936	4757.115833	373.446289	146.592743
-6466.398936	4757.115833	372.165039	64.725533
-6466.398936	4757.115833	370.883789	24.189730
-6466.398936	4757.115833	369.602539	68.441246
-6466.398936	4757.115833	368.320313	21.507320
-6466.398936	4757.115833	367.039063	-47.390366
-6466.398936	4757.115833	365.755859	53.370613
-6466.398936	4757.115833	364.473633	-14.066806
-6466.398936	4757.115833	363.190430	-48.190414
-6466.398936	4757.115833	361.907227	-31.256594
-6466.398936	4757.115833	360.624023	-12.655639
-6466.398936	4757.115833	359.340820	100.353279
-6466.398936	4757.115833	358.056641	23.578108
-6466.398936	4757.115833	356.772461	-71.246849
-6466.398936	4757.115833	355.487305	17.032043
-6466.398936	4757.115833	354.202148	29.995508
-6466.398936	4757.115833	352.916992	-12.605351
-6466.398936	4757.115833	351.631836	-12.202789
-6466.398936	4757.115833	350.346680	15.400578
-6466.398936	4757.115833	349.060547	28.795904
-6466.398936	4757.115833	347.774414	12.231707
-6466.398936	4757.115833	346.487305	-6.725965
-6466.398936	4757.115833	345.200195	80.200020
-6466.398936	4757.115833	343.913086	-108.920303
-6466.398936	4757.115833	342.625977	20.373226
-6466.398936	4757.115833	341.338867	-14.161180
-6466.398936	4757.115833	340.050781	-49.180607
-6466.398936	4757.115833	338.762695	-23.724592
-6466.398936	4757.115833	337.473633	-10.606391
-6466.398936	4757.115833	336.184570	64.875534
-6466.398936	4757.115833	334.895508	106.366035
-6466.398936	4757.115833	333.606445	-57.070152
-6466.398936	4757.115833	332.317383	-124.757790
-6466.398936	4757.115833	331.027344	11.230300
-6466.398936	4757.115833	329.736328	30.681097
-6466.398936	4757.115833	328.446289	8.282145
-6466.398936	4757.115833	327.155273	-71.687790
-6466.398936	4757.115833	325.864258	-87.532539
-6466.398936	4757.115833	324.573242	-88.357986
-6466.398936	4757.115833	323.281250	-54.595291
-6466.398936	4757.115833	321.989258	17.652029
-6466.398936	4757.115833	320.697266	-26.545271
-6466.398936	4757.115833	319.405273	-24.438339
-6466.398936	4757.115833	318.112305	-40.767292
-6466.398936	4757.115833	316.819336	43.993893
-6466.398936	4757.115833	315.526367	33.873158
-6466.398936	4757.115833	314.232422	-71.109978
-6466.398936	4757.115833	312.938477	-10.480950
-6466.398936	4757.115833	311.644531	-56.473072
-6466.398936	4757.115833	310.349609	33.624996
-6466.398936	4757.115833	309.054688	-14.218409
-6466.398936	4757.115833	307.759766	60.250393
-6466.398936	4757.115833	306.464844	192.384735
-6466.398936	4757.115833	305.168945	75.092476
-6466.398936	4757.115833	303.873047	31.113924
-6466.398936	4757.115833	302.577148	132.694595
-6466.398936	4757.115833	301.281250	98.316376
-6466.398936	4757.115833	299.984375	228.885452
