#X		#Y		#Wave		#Intensity
-7408.539894	4184.301333	1999.946289	-176.265610
-7408.539894	4184.301333	1998.981445	75.719933
-7408.539894	4184.301333	1998.017578	-159.156448
-7408.539894	4184.301333	1997.052734	41.838310
-7408.539894	4184.301333	1996.088867	34.210579
-7408.539894	4184.301333	1995.124023	120.369125
-7408.539894	4184.301333	1994.159180	3.031866
-7408.539894	4184.301333	1993.193359	145.417999
-7408.539894	4184.301333	1992.228516	-168.188278
-7408.539894	4184.301333	1991.262695	-274.061676
-7408.539894	4184.301333	1990.296875	35.549774
-7408.539894	4184.301333	1989.331055	-340.702759
-7408.539894	4184.301333	1988.365234	222.974289
-7408.539894	4184.301333	1987.398438	177.675919
-7408.539894	4184.301333	1986.432617	176.570358
-7408.539894	4184.301333	1985.465820	56.514515
-7408.539894	4184.301333	1984.499023	12.849298
-7408.539894	4184.301333	1983.532227	230.916290
-7408.539894	4184.301333	1982.565430	302.824493
-7408.539894	4184.301333	1981.597656	-107.331871
-7408.539894	4184.301333	1980.629883	137.032837
-7408.539894	4184.301333	1979.662109	-9.183768
-7408.539894	4184.301333	1978.694336	286.425537
-7408.539894	4184.301333	1977.726563	260.722900
-7408.539894	4184.301333	1976.758789	89.154305
-7408.539894	4184.301333	1975.790039	-57.872055
-7408.539894	4184.301333	1974.821289	362.472382
-7408.539894	4184.301333	1973.852539	66.984779
-7408.539894	4184.301333	1972.883789	-129.940262
-7408.539894	4184.301333	1971.915039	153.908188
-7408.539894	4184.301333	1970.945313	430.083038
-7408.539894	4184.301333	1969.975586	57.592972
-7408.539894	4184.301333	1969.005859	-24.099497
-7408.539894	4184.301333	1968.036133	-253.807434
-7408.539894	4184.301333	1967.066406	154.538803
-7408.539894	4184.301333	1966.096680	84.651283
-7408.539894	4184.301333	1965.125977	-37.075245
-7408.539894	4184.301333	1964.155273	493.647675
-7408.539894	4184.301333	1963.184570	120.434113
-7408.539894	4184.301333	1962.213867	-41.098076
-7408.539894	4184.301333	1961.242188	70.491577
-7408.539894	4184.301333	1960.271484	36.684811
-7408.539894	4184.301333	1959.299805	-63.652020
-7408.539894	4184.301333	1958.328125	74.506203
-7408.539894	4184.301333	1957.356445	495.300201
-7408.539894	4184.301333	1956.384766	234.700653
-7408.539894	4184.301333	1955.412109	190.435593
-7408.539894	4184.301333	1954.439453	472.967773
-7408.539894	4184.301333	1953.467773	121.219376
-7408.539894	4184.301333	1952.495117	391.136108
-7408.539894	4184.301333	1951.521484	142.525620
-7408.539894	4184.301333	1950.548828	65.801071
-7408.539894	4184.301333	1949.575195	97.069199
-7408.539894	4184.301333	1948.601563	172.416016
-7408.539894	4184.301333	1947.627930	21.793711
-7408.539894	4184.301333	1946.654297	290.812622
-7408.539894	4184.301333	1945.680664	88.498940
-7408.539894	4184.301333	1944.706055	28.486574
-7408.539894	4184.301333	1943.732422	-7.087816
-7408.539894	4184.301333	1942.757813	435.513184
-7408.539894	4184.301333	1941.783203	112.838600
-7408.539894	4184.301333	1940.807617	-182.810455
-7408.539894	4184.301333	1939.833008	-206.382828
-7408.539894	4184.301333	1938.857422	59.170330
-7408.539894	4184.301333	1937.881836	182.437134
-7408.539894	4184.301333	1936.906250	-59.426067
-7408.539894	4184.301333	1935.930664	-61.245453
-7408.539894	4184.301333	1934.955078	-237.001556
-7408.539894	4184.301333	1933.978516	-8.761597
-7408.539894	4184.301333	1933.001953	219.324326
-7408.539894	4184.301333	1932.025391	168.250061
-7408.539894	4184.301333	1931.048828	80.423431
-7408.539894	4184.301333	1930.072266	134.465118
-7408.539894	4184.301333	1929.094727	90.604050
-7408.539894	4184.301333	1928.118164	22.218573
-7408.539894	4184.301333	1927.140625	-405.619812
-7408.539894	4184.301333	1926.163086	95.634102
-7408.539894	4184.301333	1925.184570	-297.933807
-7408.539894	4184.301333	1924.207031	173.672226
-7408.539894	4184.301333	1923.228516	-34.180180
-7408.539894	4184.301333	1922.250000	-56.352043
-7408.539894	4184.301333	1921.271484	-266.635376
-7408.539894	4184.301333	1920.292969	-191.181671
-7408.539894	4184.301333	1919.314453	3.824390
-7408.539894	4184.301333	1918.334961	49.825226
-7408.539894	4184.301333	1917.355469	-126.338974
-7408.539894	4184.301333	1916.375977	-53.593327
-7408.539894	4184.301333	1915.396484	38.595978
-7408.539894	4184.301333	1914.416992	120.942398
-7408.539894	4184.301333	1913.436523	-74.789917
-7408.539894	4184.301333	1912.457031	-60.821213
-7408.539894	4184.301333	1911.476563	96.948425
-7408.539894	4184.301333	1910.496094	40.119003
-7408.539894	4184.301333	1909.515625	-214.129486
-7408.539894	4184.301333	1908.534180	-7.808760
-7408.539894	4184.301333	1907.552734	256.853058
-7408.539894	4184.301333	1906.572266	-187.411011
-7408.539894	4184.301333	1905.590820	-15.443369
-7408.539894	4184.301333	1904.608398	88.261795
-7408.539894	4184.301333	1903.626953	333.049225
-7408.539894	4184.301333	1902.644531	258.892517
-7408.539894	4184.301333	1901.663086	177.396347
-7408.539894	4184.301333	1900.680664	268.637482
-7408.539894	4184.301333	1899.698242	289.259033
-7408.539894	4184.301333	1898.714844	292.822571
-7408.539894	4184.301333	1897.732422	391.145905
-7408.539894	4184.301333	1896.749023	-52.720078
-7408.539894	4184.301333	1895.765625	-114.862717
-7408.539894	4184.301333	1894.782227	206.932587
-7408.539894	4184.301333	1893.798828	-253.801239
-7408.539894	4184.301333	1892.814453	-114.370354
-7408.539894	4184.301333	1891.831055	207.098206
-7408.539894	4184.301333	1890.846680	-78.663879
-7408.539894	4184.301333	1889.862305	305.723022
-7408.539894	4184.301333	1888.877930	-11.606770
-7408.539894	4184.301333	1887.892578	-100.715660
-7408.539894	4184.301333	1886.908203	33.377155
-7408.539894	4184.301333	1885.922852	-138.296570
-7408.539894	4184.301333	1884.937500	158.183975
-7408.539894	4184.301333	1883.952148	81.027214
-7408.539894	4184.301333	1882.965820	23.264063
-7408.539894	4184.301333	1881.980469	35.748848
-7408.539894	4184.301333	1880.994141	-286.286194
-7408.539894	4184.301333	1880.007813	334.417786
-7408.539894	4184.301333	1879.021484	-174.227737
-7408.539894	4184.301333	1878.035156	87.591003
-7408.539894	4184.301333	1877.047852	119.185692
-7408.539894	4184.301333	1876.061523	-1.864120
-7408.539894	4184.301333	1875.074219	53.829185
-7408.539894	4184.301333	1874.086914	208.684921
-7408.539894	4184.301333	1873.098633	34.299572
-7408.539894	4184.301333	1872.111328	43.796143
-7408.539894	4184.301333	1871.123047	-268.512573
-7408.539894	4184.301333	1870.135742	-19.628317
-7408.539894	4184.301333	1869.147461	175.913742
-7408.539894	4184.301333	1868.158203	1.399686
-7408.539894	4184.301333	1867.169922	259.585938
-7408.539894	4184.301333	1866.180664	-55.197880
-7408.539894	4184.301333	1865.192383	-9.886471
-7408.539894	4184.301333	1864.203125	279.380737
-7408.539894	4184.301333	1863.213867	10.461161
-7408.539894	4184.301333	1862.223633	410.591034
-7408.539894	4184.301333	1861.234375	201.972870
-7408.539894	4184.301333	1860.244141	-86.291153
-7408.539894	4184.301333	1859.253906	57.549213
-7408.539894	4184.301333	1858.263672	13.020391
-7408.539894	4184.301333	1857.273438	-142.562134
-7408.539894	4184.301333	1856.282227	160.220947
-7408.539894	4184.301333	1855.291992	88.934410
-7408.539894	4184.301333	1854.300781	198.482147
-7408.539894	4184.301333	1853.309570	-3.123431
-7408.539894	4184.301333	1852.317383	-31.150862
-7408.539894	4184.301333	1851.326172	150.420364
-7408.539894	4184.301333	1850.333984	-287.444031
-7408.539894	4184.301333	1849.342773	-38.600189
-7408.539894	4184.301333	1848.350586	157.089142
-7408.539894	4184.301333	1847.357422	39.548534
-7408.539894	4184.301333	1846.365234	182.000519
-7408.539894	4184.301333	1845.372070	114.880630
-7408.539894	4184.301333	1844.379883	437.616852
-7408.539894	4184.301333	1843.386719	312.536926
-7408.539894	4184.301333	1842.393555	312.533112
-7408.539894	4184.301333	1841.399414	-79.669968
-7408.539894	4184.301333	1840.406250	119.846642
-7408.539894	4184.301333	1839.412109	-152.121323
-7408.539894	4184.301333	1838.417969	-75.458542
-7408.539894	4184.301333	1837.423828	590.019592
-7408.539894	4184.301333	1836.429688	219.290695
-7408.539894	4184.301333	1835.434570	290.760376
-7408.539894	4184.301333	1834.440430	482.210175
-7408.539894	4184.301333	1833.445313	99.420982
-7408.539894	4184.301333	1832.450195	189.784134
-7408.539894	4184.301333	1831.454102	3.898223
-7408.539894	4184.301333	1830.458984	151.656967
-7408.539894	4184.301333	1829.462891	260.869720
-7408.539894	4184.301333	1828.466797	41.166576
-7408.539894	4184.301333	1827.470703	138.150131
-7408.539894	4184.301333	1826.474609	-28.883612
-7408.539894	4184.301333	1825.478516	350.875031
-7408.539894	4184.301333	1824.481445	329.936096
-7408.539894	4184.301333	1823.484375	189.021973
-7408.539894	4184.301333	1822.487305	469.930695
-7408.539894	4184.301333	1821.490234	355.184814
-7408.539894	4184.301333	1820.493164	398.513977
-7408.539894	4184.301333	1819.495117	274.029297
-7408.539894	4184.301333	1818.498047	-34.970516
-7408.539894	4184.301333	1817.500000	-47.000881
-7408.539894	4184.301333	1816.500977	402.980042
-7408.539894	4184.301333	1815.502930	-169.531021
-7408.539894	4184.301333	1814.504883	536.153015
-7408.539894	4184.301333	1813.505859	181.373032
-7408.539894	4184.301333	1812.506836	513.264893
-7408.539894	4184.301333	1811.507813	179.911896
-7408.539894	4184.301333	1810.508789	143.125778
-7408.539894	4184.301333	1809.508789	65.594666
-7408.539894	4184.301333	1808.508789	265.294800
-7408.539894	4184.301333	1807.508789	314.209900
-7408.539894	4184.301333	1806.508789	-40.898983
-7408.539894	4184.301333	1805.508789	187.008469
-7408.539894	4184.301333	1804.508789	73.089851
-7408.539894	4184.301333	1803.507813	174.059891
-7408.539894	4184.301333	1802.506836	-207.512497
-7408.539894	4184.301333	1801.505859	143.913086
-7408.539894	4184.301333	1800.504883	10.494256
-7408.539894	4184.301333	1799.502930	82.261711
-7408.539894	4184.301333	1798.501953	-149.189606
-7408.539894	4184.301333	1797.500000	-65.750938
-7408.539894	4184.301333	1796.498047	112.936516
-7408.539894	4184.301333	1795.496094	-71.073067
-7408.539894	4184.301333	1794.493164	-26.230040
-7408.539894	4184.301333	1793.491211	-48.299416
-7408.539894	4184.301333	1792.488281	191.701324
-7408.539894	4184.301333	1791.485352	-35.600700
-7408.539894	4184.301333	1790.482422	-141.438370
-7408.539894	4184.301333	1789.478516	-80.610283
-7408.539894	4184.301333	1788.475586	227.746918
-7408.539894	4184.301333	1787.471680	-176.133560
-7408.539894	4184.301333	1786.467773	-49.078926
-7408.539894	4184.301333	1785.463867	-7.902074
-7408.539894	4184.301333	1784.459961	-145.370926
-7408.539894	4184.301333	1783.455078	100.174171
-7408.539894	4184.301333	1782.450195	157.547241
-7408.539894	4184.301333	1781.445313	207.624908
-7408.539894	4184.301333	1780.440430	-46.852879
-7408.539894	4184.301333	1779.435547	-120.671555
-7408.539894	4184.301333	1778.429688	31.238102
-7408.539894	4184.301333	1777.424805	35.584404
-7408.539894	4184.301333	1776.418945	284.554779
-7408.539894	4184.301333	1775.413086	181.665451
-7408.539894	4184.301333	1774.406250	12.170713
-7408.539894	4184.301333	1773.400391	-14.913303
-7408.539894	4184.301333	1772.393555	78.978676
-7408.539894	4184.301333	1771.386719	87.226807
-7408.539894	4184.301333	1770.379883	-73.194443
-7408.539894	4184.301333	1769.373047	430.779266
-7408.539894	4184.301333	1768.365234	-126.160995
-7408.539894	4184.301333	1767.358398	166.215530
-7408.539894	4184.301333	1766.350586	55.146393
-7408.539894	4184.301333	1765.342773	26.969706
-7408.539894	4184.301333	1764.334961	212.038956
-7408.539894	4184.301333	1763.326172	586.536743
-7408.539894	4184.301333	1762.318359	117.029366
-7408.539894	4184.301333	1761.309570	315.770599
-7408.539894	4184.301333	1760.300781	-23.488579
-7408.539894	4184.301333	1759.291016	134.654694
-7408.539894	4184.301333	1758.282227	-124.208702
-7408.539894	4184.301333	1757.272461	-63.470562
-7408.539894	4184.301333	1756.262695	-175.711273
-7408.539894	4184.301333	1755.252930	-11.135790
-7408.539894	4184.301333	1754.243164	68.045090
-7408.539894	4184.301333	1753.233398	289.007294
-7408.539894	4184.301333	1752.222656	195.139145
-7408.539894	4184.301333	1751.211914	-17.088232
-7408.539894	4184.301333	1750.201172	78.014854
-7408.539894	4184.301333	1749.190430	362.067749
-7408.539894	4184.301333	1748.179688	106.955498
-7408.539894	4184.301333	1747.167969	213.370422
-7408.539894	4184.301333	1746.156250	95.141922
-7408.539894	4184.301333	1745.144531	-9.012928
-7408.539894	4184.301333	1744.132813	37.890564
-7408.539894	4184.301333	1743.121094	-16.908997
-7408.539894	4184.301333	1742.108398	-48.215954
-7408.539894	4184.301333	1741.095703	-72.571243
-7408.539894	4184.301333	1740.083008	-94.697144
-7408.539894	4184.301333	1739.070313	142.598129
-7408.539894	4184.301333	1738.057617	35.225159
-7408.539894	4184.301333	1737.043945	-72.242104
-7408.539894	4184.301333	1736.030273	20.640543
-7408.539894	4184.301333	1735.016602	384.496613
-7408.539894	4184.301333	1734.002930	92.726952
-7408.539894	4184.301333	1732.989258	-241.494110
-7408.539894	4184.301333	1731.974609	-205.759216
-7408.539894	4184.301333	1730.959961	-12.326530
-7408.539894	4184.301333	1729.945313	126.718536
-7408.539894	4184.301333	1728.930664	-302.008209
-7408.539894	4184.301333	1727.916016	-24.312887
-7408.539894	4184.301333	1726.900391	-241.239853
-7408.539894	4184.301333	1725.885742	-154.589310
-7408.539894	4184.301333	1724.870117	-46.925362
-7408.539894	4184.301333	1723.853516	-398.243835
-7408.539894	4184.301333	1722.837891	160.817963
-7408.539894	4184.301333	1721.822266	18.647129
-7408.539894	4184.301333	1720.805664	69.223969
-7408.539894	4184.301333	1719.789063	-211.852615
-7408.539894	4184.301333	1718.772461	-387.175659
-7408.539894	4184.301333	1717.754883	62.578583
-7408.539894	4184.301333	1716.738281	-11.956040
-7408.539894	4184.301333	1715.720703	-335.611359
-7408.539894	4184.301333	1714.703125	-170.723343
-7408.539894	4184.301333	1713.685547	22.154127
-7408.539894	4184.301333	1712.667969	146.738632
-7408.539894	4184.301333	1711.649414	97.437248
-7408.539894	4184.301333	1710.630859	191.193893
-7408.539894	4184.301333	1709.612305	-156.363663
-7408.539894	4184.301333	1708.593750	87.304504
-7408.539894	4184.301333	1707.575195	-161.832001
-7408.539894	4184.301333	1706.555664	-122.538498
-7408.539894	4184.301333	1705.536133	118.266312
-7408.539894	4184.301333	1704.516602	183.032547
-7408.539894	4184.301333	1703.497070	111.708382
-7408.539894	4184.301333	1702.477539	42.634590
-7408.539894	4184.301333	1701.457031	123.416443
-7408.539894	4184.301333	1700.437500	-62.997635
-7408.539894	4184.301333	1699.416992	317.318665
-7408.539894	4184.301333	1698.395508	25.328876
-7408.539894	4184.301333	1697.375000	126.650108
-7408.539894	4184.301333	1696.354492	78.012474
-7408.539894	4184.301333	1695.333008	108.844864
-7408.539894	4184.301333	1694.311523	29.581533
-7408.539894	4184.301333	1693.290039	165.457901
-7408.539894	4184.301333	1692.267578	245.033432
-7408.539894	4184.301333	1691.246094	-28.637848
-7408.539894	4184.301333	1690.223633	134.891968
-7408.539894	4184.301333	1689.201172	377.725708
-7408.539894	4184.301333	1688.178711	232.399597
-7408.539894	4184.301333	1687.155273	131.416046
-7408.539894	4184.301333	1686.132813	345.757843
-7408.539894	4184.301333	1685.109375	298.301697
-7408.539894	4184.301333	1684.085938	404.893097
-7408.539894	4184.301333	1683.062500	525.349670
-7408.539894	4184.301333	1682.039063	454.236938
-7408.539894	4184.301333	1681.014648	544.090027
-7408.539894	4184.301333	1679.990234	547.469849
-7408.539894	4184.301333	1678.965820	543.750488
-7408.539894	4184.301333	1677.941406	675.228149
-7408.539894	4184.301333	1676.916992	769.243896
-7408.539894	4184.301333	1675.891602	518.031616
-7408.539894	4184.301333	1674.866211	961.539368
-7408.539894	4184.301333	1673.840820	724.184387
-7408.539894	4184.301333	1672.815430	717.536255
-7408.539894	4184.301333	1671.790039	610.615845
-7408.539894	4184.301333	1670.763672	894.992493
-7408.539894	4184.301333	1669.737305	848.450806
-7408.539894	4184.301333	1668.710938	981.142334
-7408.539894	4184.301333	1667.684570	773.789185
-7408.539894	4184.301333	1666.658203	903.947205
-7408.539894	4184.301333	1665.630859	1215.488403
-7408.539894	4184.301333	1664.603516	956.769775
-7408.539894	4184.301333	1663.576172	1140.072021
-7408.539894	4184.301333	1662.548828	1223.211060
-7408.539894	4184.301333	1661.520508	813.245728
-7408.539894	4184.301333	1660.493164	1061.335327
-7408.539894	4184.301333	1659.464844	1244.163208
-7408.539894	4184.301333	1658.436523	1127.037964
-7408.539894	4184.301333	1657.408203	1304.988403
-7408.539894	4184.301333	1656.378906	1301.585083
-7408.539894	4184.301333	1655.350586	1539.681152
-7408.539894	4184.301333	1654.321289	1645.242432
-7408.539894	4184.301333	1653.291992	1676.396484
-7408.539894	4184.301333	1652.261719	1547.289917
-7408.539894	4184.301333	1651.232422	1905.573120
-7408.539894	4184.301333	1650.202148	1555.899048
-7408.539894	4184.301333	1649.171875	1577.504761
-7408.539894	4184.301333	1648.141602	1958.577515
-7408.539894	4184.301333	1647.111328	1889.528564
-7408.539894	4184.301333	1646.080078	1790.303101
-7408.539894	4184.301333	1645.049805	2474.628662
-7408.539894	4184.301333	1644.018555	2379.850586
-7408.539894	4184.301333	1642.987305	2301.276855
-7408.539894	4184.301333	1641.955078	2090.612305
-7408.539894	4184.301333	1640.923828	2540.170166
-7408.539894	4184.301333	1639.891602	2338.704590
-7408.539894	4184.301333	1638.859375	2868.982178
-7408.539894	4184.301333	1637.827148	2695.217285
-7408.539894	4184.301333	1636.794922	3225.126221
-7408.539894	4184.301333	1635.761719	3090.606934
-7408.539894	4184.301333	1634.729492	3067.161133
-7408.539894	4184.301333	1633.696289	3300.453857
-7408.539894	4184.301333	1632.662109	3457.287354
-7408.539894	4184.301333	1631.628906	3595.528809
-7408.539894	4184.301333	1630.594727	3849.270752
-7408.539894	4184.301333	1629.561523	4010.423828
-7408.539894	4184.301333	1628.527344	3970.412354
-7408.539894	4184.301333	1627.493164	3999.703369
-7408.539894	4184.301333	1626.458008	3818.721191
-7408.539894	4184.301333	1625.423828	3663.191406
-7408.539894	4184.301333	1624.388672	4043.438232
-7408.539894	4184.301333	1623.353516	4194.936523
-7408.539894	4184.301333	1622.318359	4297.875488
-7408.539894	4184.301333	1621.282227	4373.050781
-7408.539894	4184.301333	1620.247070	4335.113281
-7408.539894	4184.301333	1619.210938	4610.918945
-7408.539894	4184.301333	1618.174805	4720.524902
-7408.539894	4184.301333	1617.137695	5069.899902
-7408.539894	4184.301333	1616.101563	5246.203613
-7408.539894	4184.301333	1615.064453	5270.271973
-7408.539894	4184.301333	1614.027344	5457.958984
-7408.539894	4184.301333	1612.990234	5389.779297
-7408.539894	4184.301333	1611.953125	5632.638672
-7408.539894	4184.301333	1610.916016	6301.529297
-7408.539894	4184.301333	1609.877930	6161.797363
-7408.539894	4184.301333	1608.839844	6252.369141
-7408.539894	4184.301333	1607.801758	6471.817871
-7408.539894	4184.301333	1606.763672	6451.805664
-7408.539894	4184.301333	1605.724609	6556.057617
-7408.539894	4184.301333	1604.685547	6246.137207
-7408.539894	4184.301333	1603.646484	6198.572266
-7408.539894	4184.301333	1602.607422	6413.209961
-7408.539894	4184.301333	1601.568359	6211.576172
-7408.539894	4184.301333	1600.528320	6244.514648
-7408.539894	4184.301333	1599.489258	6093.573730
-7408.539894	4184.301333	1598.449219	6333.362305
-7408.539894	4184.301333	1597.408203	6352.491211
-7408.539894	4184.301333	1596.368164	6390.008789
-7408.539894	4184.301333	1595.327148	6147.319336
-7408.539894	4184.301333	1594.287109	6088.446777
-7408.539894	4184.301333	1593.246094	6243.115723
-7408.539894	4184.301333	1592.204102	6638.748535
-7408.539894	4184.301333	1591.163086	6283.817383
-7408.539894	4184.301333	1590.121094	6436.114258
-7408.539894	4184.301333	1589.079102	6526.434082
-7408.539894	4184.301333	1588.037109	6823.163086
-7408.539894	4184.301333	1586.995117	6640.540527
-7408.539894	4184.301333	1585.953125	6650.600098
-7408.539894	4184.301333	1584.910156	6658.382813
-7408.539894	4184.301333	1583.867188	6780.781250
-7408.539894	4184.301333	1582.824219	6981.067383
-7408.539894	4184.301333	1581.781250	6475.717773
-7408.539894	4184.301333	1580.737305	6740.176270
-7408.539894	4184.301333	1579.693359	7020.595703
-7408.539894	4184.301333	1578.649414	6712.533203
-7408.539894	4184.301333	1577.605469	6658.716309
-7408.539894	4184.301333	1576.561523	6440.179199
-7408.539894	4184.301333	1575.516602	6768.636719
-7408.539894	4184.301333	1574.472656	6561.683594
-7408.539894	4184.301333	1573.427734	6588.151855
-7408.539894	4184.301333	1572.381836	6399.687500
-7408.539894	4184.301333	1571.336914	6645.761719
-7408.539894	4184.301333	1570.291016	6189.997559
-7408.539894	4184.301333	1569.246094	5841.884277
-7408.539894	4184.301333	1568.200195	5825.285156
-7408.539894	4184.301333	1567.153320	5550.576660
-7408.539894	4184.301333	1566.107422	5698.602539
-7408.539894	4184.301333	1565.060547	5319.086914
-7408.539894	4184.301333	1564.013672	5209.197754
-7408.539894	4184.301333	1562.966797	4957.875488
-7408.539894	4184.301333	1561.919922	4713.555664
-7408.539894	4184.301333	1560.872070	4975.971191
-7408.539894	4184.301333	1559.825195	4640.606934
-7408.539894	4184.301333	1558.777344	4380.707031
-7408.539894	4184.301333	1557.729492	4764.089844
-7408.539894	4184.301333	1556.680664	4506.669922
-7408.539894	4184.301333	1555.632813	4304.134277
-7408.539894	4184.301333	1554.583984	4256.728027
-7408.539894	4184.301333	1553.535156	4070.406250
-7408.539894	4184.301333	1552.486328	4189.520508
-7408.539894	4184.301333	1551.436523	3782.467529
-7408.539894	4184.301333	1550.387695	3717.265381
-7408.539894	4184.301333	1549.337891	3964.103516
-7408.539894	4184.301333	1548.288086	3446.007324
-7408.539894	4184.301333	1547.238281	3372.026611
-7408.539894	4184.301333	1546.187500	3179.816895
-7408.539894	4184.301333	1545.136719	3008.237061
-7408.539894	4184.301333	1544.086914	3068.831055
-7408.539894	4184.301333	1543.035156	2865.660645
-7408.539894	4184.301333	1541.984375	3149.254150
-7408.539894	4184.301333	1540.933594	2805.367188
-7408.539894	4184.301333	1539.881836	2475.334473
-7408.539894	4184.301333	1538.830078	2702.278320
-7408.539894	4184.301333	1537.778320	2308.951904
-7408.539894	4184.301333	1536.725586	2297.493408
-7408.539894	4184.301333	1535.673828	2120.338379
-7408.539894	4184.301333	1534.621094	2102.290039
-7408.539894	4184.301333	1533.568359	1920.884155
-7408.539894	4184.301333	1532.515625	1932.574585
-7408.539894	4184.301333	1531.461914	2107.744385
-7408.539894	4184.301333	1530.409180	2074.205078
-7408.539894	4184.301333	1529.355469	1775.364136
-7408.539894	4184.301333	1528.301758	1712.610229
-7408.539894	4184.301333	1527.247070	1795.099976
-7408.539894	4184.301333	1526.193359	1476.382568
-7408.539894	4184.301333	1525.138672	1450.287964
-7408.539894	4184.301333	1524.083984	1537.614624
-7408.539894	4184.301333	1523.029297	1602.353638
-7408.539894	4184.301333	1521.974609	1216.373169
-7408.539894	4184.301333	1520.918945	1193.025635
-7408.539894	4184.301333	1519.863281	1038.456909
-7408.539894	4184.301333	1518.807617	1099.134399
-7408.539894	4184.301333	1517.751953	1173.477173
-7408.539894	4184.301333	1516.696289	1075.904053
-7408.539894	4184.301333	1515.639648	797.467102
-7408.539894	4184.301333	1514.583008	978.475586
-7408.539894	4184.301333	1513.526367	960.490845
-7408.539894	4184.301333	1512.469727	940.365295
-7408.539894	4184.301333	1511.412109	723.665100
-7408.539894	4184.301333	1510.355469	902.737061
-7408.539894	4184.301333	1509.297852	541.722534
-7408.539894	4184.301333	1508.240234	488.262085
-7408.539894	4184.301333	1507.181641	475.599976
-7408.539894	4184.301333	1506.124023	61.031265
-7408.539894	4184.301333	1505.065430	473.229462
-7408.539894	4184.301333	1504.006836	413.522064
-7408.539894	4184.301333	1502.948242	101.146156
-7408.539894	4184.301333	1501.888672	186.215683
-7408.539894	4184.301333	1500.830078	117.938553
-7408.539894	4184.301333	1499.770508	232.542084
-7408.539894	4184.301333	1498.710938	121.677383
-7408.539894	4184.301333	1497.650391	186.870956
-7408.539894	4184.301333	1496.590820	94.345322
-7408.539894	4184.301333	1495.530273	157.516220
-7408.539894	4184.301333	1494.469727	-124.022438
-7408.539894	4184.301333	1493.409180	-92.125473
-7408.539894	4184.301333	1492.348633	-48.846989
-7408.539894	4184.301333	1491.287109	231.039398
-7408.539894	4184.301333	1490.225586	-193.898315
-7408.539894	4184.301333	1489.164063	-26.407585
-7408.539894	4184.301333	1488.102539	24.096121
-7408.539894	4184.301333	1487.041016	-355.142517
-7408.539894	4184.301333	1485.978516	-479.837982
-7408.539894	4184.301333	1484.916016	81.764565
-7408.539894	4184.301333	1483.853516	-40.422256
-7408.539894	4184.301333	1482.791016	-315.364746
-7408.539894	4184.301333	1481.727539	-493.376556
-7408.539894	4184.301333	1480.664063	-169.951462
-7408.539894	4184.301333	1479.600586	-338.641693
-7408.539894	4184.301333	1478.537109	-57.819901
-7408.539894	4184.301333	1477.473633	-59.940704
-7408.539894	4184.301333	1476.409180	-61.998848
-7408.539894	4184.301333	1475.344727	-36.896961
-7408.539894	4184.301333	1474.280273	111.695419
-7408.539894	4184.301333	1473.215820	-64.824844
-7408.539894	4184.301333	1472.151367	18.958628
-7408.539894	4184.301333	1471.085938	104.871986
-7408.539894	4184.301333	1470.020508	-111.521309
-7408.539894	4184.301333	1468.955078	-9.049051
-7408.539894	4184.301333	1467.888672	-77.292946
-7408.539894	4184.301333	1466.823242	57.872395
-7408.539894	4184.301333	1465.756836	-125.831871
-7408.539894	4184.301333	1464.690430	-142.048065
-7408.539894	4184.301333	1463.624023	94.890076
-7408.539894	4184.301333	1462.556641	188.272537
-7408.539894	4184.301333	1461.490234	159.342484
-7408.539894	4184.301333	1460.422852	74.015671
-7408.539894	4184.301333	1459.355469	138.303345
-7408.539894	4184.301333	1458.287109	224.076035
-7408.539894	4184.301333	1457.219727	382.808228
-7408.539894	4184.301333	1456.151367	280.279968
-7408.539894	4184.301333	1455.083008	56.792934
-7408.539894	4184.301333	1454.014648	62.575783
-7408.539894	4184.301333	1452.945313	412.671509
-7408.539894	4184.301333	1451.876953	174.943848
-7408.539894	4184.301333	1450.807617	157.326431
-7408.539894	4184.301333	1449.738281	279.022552
-7408.539894	4184.301333	1448.668945	168.422928
-7408.539894	4184.301333	1447.598633	508.873901
-7408.539894	4184.301333	1446.528320	256.425964
-7408.539894	4184.301333	1445.458008	115.180748
-7408.539894	4184.301333	1444.387695	176.230057
-7408.539894	4184.301333	1443.317383	332.093445
-7408.539894	4184.301333	1442.246094	558.984985
-7408.539894	4184.301333	1441.174805	500.782684
-7408.539894	4184.301333	1440.103516	79.773575
-7408.539894	4184.301333	1439.032227	239.051361
-7408.539894	4184.301333	1437.960938	97.043724
-7408.539894	4184.301333	1436.888672	359.082581
-7408.539894	4184.301333	1435.816406	414.832245
-7408.539894	4184.301333	1434.744141	161.388306
-7408.539894	4184.301333	1433.670898	195.458054
-7408.539894	4184.301333	1432.598633	240.898209
-7408.539894	4184.301333	1431.525391	-0.438954
-7408.539894	4184.301333	1430.452148	280.135529
-7408.539894	4184.301333	1429.378906	-93.575783
-7408.539894	4184.301333	1428.304688	74.619377
-7408.539894	4184.301333	1427.231445	-132.427551
-7408.539894	4184.301333	1426.157227	-54.730247
-7408.539894	4184.301333	1425.083008	-282.717651
-7408.539894	4184.301333	1424.007813	65.633057
-7408.539894	4184.301333	1422.933594	306.857727
-7408.539894	4184.301333	1421.858398	153.625381
-7408.539894	4184.301333	1420.783203	423.373627
-7408.539894	4184.301333	1419.708008	378.053406
-7408.539894	4184.301333	1418.631836	285.994751
-7408.539894	4184.301333	1417.555664	175.316528
-7408.539894	4184.301333	1416.479492	422.785980
-7408.539894	4184.301333	1415.403320	157.729019
-7408.539894	4184.301333	1414.327148	94.016350
-7408.539894	4184.301333	1413.250000	-199.605347
-7408.539894	4184.301333	1412.173828	73.760345
-7408.539894	4184.301333	1411.096680	477.655975
-7408.539894	4184.301333	1410.018555	279.501526
-7408.539894	4184.301333	1408.941406	261.719910
-7408.539894	4184.301333	1407.863281	17.225519
-7408.539894	4184.301333	1406.785156	429.989349
-7408.539894	4184.301333	1405.707031	426.821503
-7408.539894	4184.301333	1404.628906	437.545776
-7408.539894	4184.301333	1403.549805	277.116852
-7408.539894	4184.301333	1402.470703	186.653625
-7408.539894	4184.301333	1401.391602	268.409515
-7408.539894	4184.301333	1400.312500	377.100830
-7408.539894	4184.301333	1399.233398	514.768066
-7408.539894	4184.301333	1398.153320	280.948608
-7408.539894	4184.301333	1397.073242	-88.532410
-7408.539894	4184.301333	1395.993164	222.308884
-7408.539894	4184.301333	1394.913086	75.669205
-7408.539894	4184.301333	1393.832031	343.045319
-7408.539894	4184.301333	1392.750977	122.629051
-7408.539894	4184.301333	1391.669922	-9.869218
-7408.539894	4184.301333	1390.588867	72.040154
-7408.539894	4184.301333	1389.506836	236.057495
-7408.539894	4184.301333	1388.425781	178.325409
-7408.539894	4184.301333	1387.343750	167.805786
-7408.539894	4184.301333	1386.261719	335.978699
-7408.539894	4184.301333	1385.178711	-29.751909
-7408.539894	4184.301333	1384.096680	526.429382
-7408.539894	4184.301333	1383.013672	150.739197
-7408.539894	4184.301333	1381.930664	365.682617
-7408.539894	4184.301333	1380.846680	259.601379
-7408.539894	4184.301333	1379.763672	800.149841
-7408.539894	4184.301333	1378.679688	605.076782
-7408.539894	4184.301333	1377.595703	495.816406
-7408.539894	4184.301333	1376.511719	639.381653
-7408.539894	4184.301333	1375.427734	560.244446
-7408.539894	4184.301333	1374.342773	821.928894
-7408.539894	4184.301333	1373.257813	610.228027
-7408.539894	4184.301333	1372.172852	632.017944
-7408.539894	4184.301333	1371.087891	800.276550
-7408.539894	4184.301333	1370.001953	768.280151
-7408.539894	4184.301333	1368.916992	886.151489
-7408.539894	4184.301333	1367.831055	535.748962
-7408.539894	4184.301333	1366.744141	1117.700928
-7408.539894	4184.301333	1365.658203	779.961487
-7408.539894	4184.301333	1364.571289	1093.415039
-7408.539894	4184.301333	1363.484375	1013.517578
-7408.539894	4184.301333	1362.397461	1032.268311
-7408.539894	4184.301333	1361.310547	1438.849854
-7408.539894	4184.301333	1360.222656	1427.293579
-7408.539894	4184.301333	1359.135742	1219.354980
-7408.539894	4184.301333	1358.047852	1313.933105
-7408.539894	4184.301333	1356.958984	1347.564575
-7408.539894	4184.301333	1355.871094	1361.510132
-7408.539894	4184.301333	1354.782227	1435.486084
-7408.539894	4184.301333	1353.693359	1489.578247
-7408.539894	4184.301333	1352.604492	1533.883301
-7408.539894	4184.301333	1351.515625	1240.988281
-7408.539894	4184.301333	1350.425781	1381.723999
-7408.539894	4184.301333	1349.335938	1586.404541
-7408.539894	4184.301333	1348.246094	1254.583496
-7408.539894	4184.301333	1347.156250	1320.365479
-7408.539894	4184.301333	1346.066406	1260.733887
-7408.539894	4184.301333	1344.975586	1680.502441
-7408.539894	4184.301333	1343.884766	1751.019775
-7408.539894	4184.301333	1342.793945	1787.802368
-7408.539894	4184.301333	1341.702148	1498.347900
-7408.539894	4184.301333	1340.611328	1804.367432
-7408.539894	4184.301333	1339.519531	1427.634277
-7408.539894	4184.301333	1338.427734	1841.914795
-7408.539894	4184.301333	1337.334961	1663.476074
-7408.539894	4184.301333	1336.243164	1472.374268
-7408.539894	4184.301333	1335.150391	1527.295654
-7408.539894	4184.301333	1334.057617	1326.666138
-7408.539894	4184.301333	1332.964844	1268.355713
-7408.539894	4184.301333	1331.871094	1170.669312
-7408.539894	4184.301333	1330.778320	980.349609
-7408.539894	4184.301333	1329.684570	840.712463
-7408.539894	4184.301333	1328.590820	998.062256
-7408.539894	4184.301333	1327.496094	913.641724
-7408.539894	4184.301333	1326.402344	821.306091
-7408.539894	4184.301333	1325.307617	797.961792
-7408.539894	4184.301333	1324.212891	544.707703
-7408.539894	4184.301333	1323.117188	818.909912
-7408.539894	4184.301333	1322.022461	674.956177
-7408.539894	4184.301333	1320.926758	509.946930
-7408.539894	4184.301333	1319.831055	734.093994
-7408.539894	4184.301333	1318.735352	415.687317
-7408.539894	4184.301333	1317.638672	677.081543
-7408.539894	4184.301333	1316.542969	488.499603
-7408.539894	4184.301333	1315.446289	859.114929
-7408.539894	4184.301333	1314.349609	839.724854
-7408.539894	4184.301333	1313.251953	855.701965
-7408.539894	4184.301333	1312.155273	931.645569
-7408.539894	4184.301333	1311.057617	820.612366
-7408.539894	4184.301333	1309.959961	959.788086
-7408.539894	4184.301333	1308.862305	947.978394
-7408.539894	4184.301333	1307.763672	875.315674
-7408.539894	4184.301333	1306.665039	834.864502
-7408.539894	4184.301333	1305.566406	598.410828
-7408.539894	4184.301333	1304.467773	203.850006
-7408.539894	4184.301333	1303.369141	590.210144
-7408.539894	4184.301333	1302.269531	676.495056
-7408.539894	4184.301333	1301.169922	538.067932
-7408.539894	4184.301333	1300.070313	285.579834
-7408.539894	4184.301333	1298.970703	378.193695
-7408.539894	4184.301333	1297.870117	333.147949
-7408.539894	4184.301333	1296.769531	700.850342
-7408.539894	4184.301333	1295.668945	786.551697
-7408.539894	4184.301333	1294.568359	486.936279
-7408.539894	4184.301333	1293.466797	281.609985
-7408.539894	4184.301333	1292.366211	445.935730
-7408.539894	4184.301333	1291.264648	488.638184
-7408.539894	4184.301333	1290.162109	446.825623
-7408.539894	4184.301333	1289.060547	461.302124
-7408.539894	4184.301333	1287.958008	237.161728
-7408.539894	4184.301333	1286.855469	173.799973
-7408.539894	4184.301333	1285.752930	324.981293
-7408.539894	4184.301333	1284.650391	83.940796
-7408.539894	4184.301333	1283.546875	154.366730
-7408.539894	4184.301333	1282.444336	80.588089
-7408.539894	4184.301333	1281.339844	17.435675
-7408.539894	4184.301333	1280.236328	38.289165
-7408.539894	4184.301333	1279.132813	130.362198
-7408.539894	4184.301333	1278.028320	300.468140
-7408.539894	4184.301333	1276.923828	178.084274
-7408.539894	4184.301333	1275.819336	179.787491
-7408.539894	4184.301333	1274.713867	-19.509138
-7408.539894	4184.301333	1273.608398	42.429367
-7408.539894	4184.301333	1272.503906	207.972610
-7408.539894	4184.301333	1271.397461	-11.787991
-7408.539894	4184.301333	1270.291992	-195.850555
-7408.539894	4184.301333	1269.185547	30.954241
-7408.539894	4184.301333	1268.080078	-311.072723
-7408.539894	4184.301333	1266.972656	26.255943
-7408.539894	4184.301333	1265.866211	-139.726135
-7408.539894	4184.301333	1264.759766	34.341557
-7408.539894	4184.301333	1263.652344	-172.156998
-7408.539894	4184.301333	1262.544922	-46.369869
-7408.539894	4184.301333	1261.436523	-93.299744
-7408.539894	4184.301333	1260.329102	-150.177292
-7408.539894	4184.301333	1259.220703	-43.914825
-7408.539894	4184.301333	1258.112305	71.671509
-7408.539894	4184.301333	1257.003906	-134.358932
-7408.539894	4184.301333	1255.895508	14.830540
-7408.539894	4184.301333	1254.786133	36.069378
-7408.539894	4184.301333	1253.676758	-297.095337
-7408.539894	4184.301333	1252.567383	-120.020226
-7408.539894	4184.301333	1251.458008	-241.802216
-7408.539894	4184.301333	1250.347656	-343.717285
-7408.539894	4184.301333	1249.237305	-94.616791
-7408.539894	4184.301333	1248.126953	-216.460907
-7408.539894	4184.301333	1247.016602	-93.100441
-7408.539894	4184.301333	1245.905273	38.739449
-7408.539894	4184.301333	1244.793945	-80.581696
-7408.539894	4184.301333	1243.682617	-56.701759
-7408.539894	4184.301333	1242.571289	-20.840668
-7408.539894	4184.301333	1241.459961	39.672295
-7408.539894	4184.301333	1240.347656	-32.214226
-7408.539894	4184.301333	1239.235352	-190.906281
-7408.539894	4184.301333	1238.123047	-84.658951
-7408.539894	4184.301333	1237.009766	-42.283340
-7408.539894	4184.301333	1235.897461	-11.680206
-7408.539894	4184.301333	1234.784180	-95.787048
-7408.539894	4184.301333	1233.670898	-90.404427
-7408.539894	4184.301333	1232.556641	-18.907923
-7408.539894	4184.301333	1231.443359	79.114288
-7408.539894	4184.301333	1230.329102	19.292999
-7408.539894	4184.301333	1229.214844	0.444905
-7408.539894	4184.301333	1228.099609	98.190453
-7408.539894	4184.301333	1226.985352	42.289265
-7408.539894	4184.301333	1225.870117	-68.961952
-7408.539894	4184.301333	1224.754883	-10.285500
-7408.539894	4184.301333	1223.639648	-165.569199
-7408.539894	4184.301333	1222.523438	-83.063774
-7408.539894	4184.301333	1221.408203	108.406616
-7408.539894	4184.301333	1220.291992	-18.927887
-7408.539894	4184.301333	1219.174805	-152.431717
-7408.539894	4184.301333	1218.058594	-90.735565
-7408.539894	4184.301333	1216.941406	-41.812515
-7408.539894	4184.301333	1215.824219	111.867271
-7408.539894	4184.301333	1214.707031	-136.951187
-7408.539894	4184.301333	1213.589844	-52.628315
-7408.539894	4184.301333	1212.471680	-112.102509
-7408.539894	4184.301333	1211.353516	-26.312559
-7408.539894	4184.301333	1210.235352	-57.048569
-7408.539894	4184.301333	1209.117188	50.991146
-7408.539894	4184.301333	1207.998047	-236.551804
-7408.539894	4184.301333	1206.878906	34.102654
-7408.539894	4184.301333	1205.759766	106.627342
-7408.539894	4184.301333	1204.640625	45.062244
-7408.539894	4184.301333	1203.520508	34.261738
-7408.539894	4184.301333	1202.401367	94.822601
-7408.539894	4184.301333	1201.281250	-57.295441
-7408.539894	4184.301333	1200.160156	-167.304428
-7408.539894	4184.301333	1199.040039	18.507898
-7408.539894	4184.301333	1197.918945	-86.252464
-7408.539894	4184.301333	1196.797852	-49.164429
-7408.539894	4184.301333	1195.676758	-66.105911
-7408.539894	4184.301333	1194.555664	101.574463
-7408.539894	4184.301333	1193.433594	90.054985
-7408.539894	4184.301333	1192.311523	64.262794
-7408.539894	4184.301333	1191.189453	21.907881
-7408.539894	4184.301333	1190.066406	5.334435
-7408.539894	4184.301333	1188.944336	130.060196
-7408.539894	4184.301333	1187.821289	145.553772
-7408.539894	4184.301333	1186.698242	116.023781
-7408.539894	4184.301333	1185.574219	-196.240417
-7408.539894	4184.301333	1184.451172	55.011726
-7408.539894	4184.301333	1183.327148	112.516045
-7408.539894	4184.301333	1182.203125	-33.301819
-7408.539894	4184.301333	1181.078125	257.202789
-7408.539894	4184.301333	1179.954102	185.673416
-7408.539894	4184.301333	1178.829102	-31.925955
-7408.539894	4184.301333	1177.704102	35.510235
-7408.539894	4184.301333	1176.579102	131.535828
-7408.539894	4184.301333	1175.453125	154.804977
-7408.539894	4184.301333	1174.327148	372.343384
-7408.539894	4184.301333	1173.201172	267.261536
-7408.539894	4184.301333	1172.075195	275.039093
-7408.539894	4184.301333	1170.949219	331.895935
-7408.539894	4184.301333	1169.822266	295.546539
-7408.539894	4184.301333	1168.695313	275.438751
-7408.539894	4184.301333	1167.568359	187.556213
-7408.539894	4184.301333	1166.440430	-20.433693
-7408.539894	4184.301333	1165.313477	-94.450233
-7408.539894	4184.301333	1164.185547	110.545311
-7408.539894	4184.301333	1163.057617	87.503113
-7408.539894	4184.301333	1161.928711	469.732971
-7408.539894	4184.301333	1160.800781	386.306335
-7408.539894	4184.301333	1159.671875	338.404083
-7408.539894	4184.301333	1158.541992	433.406097
-7408.539894	4184.301333	1157.413086	381.757385
-7408.539894	4184.301333	1156.283203	606.347351
-7408.539894	4184.301333	1155.154297	205.011841
-7408.539894	4184.301333	1154.023438	518.036072
-7408.539894	4184.301333	1152.893555	457.469421
-7408.539894	4184.301333	1151.763672	637.105713
-7408.539894	4184.301333	1150.632813	530.172119
-7408.539894	4184.301333	1149.501953	226.277924
-7408.539894	4184.301333	1148.370117	229.802505
-7408.539894	4184.301333	1147.239258	125.367905
-7408.539894	4184.301333	1146.107422	485.393646
-7408.539894	4184.301333	1144.975586	259.893616
-7408.539894	4184.301333	1143.843750	550.658203
-7408.539894	4184.301333	1142.710938	360.754028
-7408.539894	4184.301333	1141.578125	242.671707
-7408.539894	4184.301333	1140.445313	341.762268
-7408.539894	4184.301333	1139.312500	260.941132
-7408.539894	4184.301333	1138.178711	254.821503
-7408.539894	4184.301333	1137.045898	119.661575
-7408.539894	4184.301333	1135.912109	298.596436
-7408.539894	4184.301333	1134.777344	278.859650
-7408.539894	4184.301333	1133.643555	273.579132
-7408.539894	4184.301333	1132.508789	462.043732
-7408.539894	4184.301333	1131.374023	566.938293
-7408.539894	4184.301333	1130.239258	645.016235
-7408.539894	4184.301333	1129.104492	856.751709
-7408.539894	4184.301333	1127.968750	359.981812
-7408.539894	4184.301333	1126.833008	771.006958
-7408.539894	4184.301333	1125.697266	341.662689
-7408.539894	4184.301333	1124.560547	601.151123
-7408.539894	4184.301333	1123.424805	715.257874
-7408.539894	4184.301333	1122.288086	293.465820
-7408.539894	4184.301333	1121.151367	268.521149
-7408.539894	4184.301333	1120.013672	62.428509
-7408.539894	4184.301333	1118.876953	286.442902
-7408.539894	4184.301333	1117.739258	222.163834
-7408.539894	4184.301333	1116.601563	118.706924
-7408.539894	4184.301333	1115.462891	-25.874649
-7408.539894	4184.301333	1114.324219	163.402161
-7408.539894	4184.301333	1113.186523	365.696503
-7408.539894	4184.301333	1112.046875	-60.618950
-7408.539894	4184.301333	1110.908203	41.518005
-7408.539894	4184.301333	1109.769531	88.199471
-7408.539894	4184.301333	1108.629883	-112.978882
-7408.539894	4184.301333	1107.490234	-46.236568
-7408.539894	4184.301333	1106.349609	84.760216
-7408.539894	4184.301333	1105.209961	-61.912964
-7408.539894	4184.301333	1104.069336	43.523048
-7408.539894	4184.301333	1102.928711	46.864746
-7408.539894	4184.301333	1101.787109	139.181946
-7408.539894	4184.301333	1100.646484	126.638847
-7408.539894	4184.301333	1099.504883	182.914337
-7408.539894	4184.301333	1098.363281	265.971283
-7408.539894	4184.301333	1097.221680	230.161072
-7408.539894	4184.301333	1096.079102	377.406616
-7408.539894	4184.301333	1094.936523	259.557831
-7408.539894	4184.301333	1093.793945	153.856689
-7408.539894	4184.301333	1092.651367	89.847946
-7408.539894	4184.301333	1091.507813	455.374146
-7408.539894	4184.301333	1090.364258	506.308990
-7408.539894	4184.301333	1089.220703	373.158264
-7408.539894	4184.301333	1088.077148	135.814301
-7408.539894	4184.301333	1086.933594	-4.699525
-7408.539894	4184.301333	1085.789063	42.720608
-7408.539894	4184.301333	1084.644531	71.550499
-7408.539894	4184.301333	1083.499023	324.878235
-7408.539894	4184.301333	1082.354492	26.070210
-7408.539894	4184.301333	1081.208984	382.269409
-7408.539894	4184.301333	1080.063477	154.989151
-7408.539894	4184.301333	1078.917969	399.049652
-7408.539894	4184.301333	1077.771484	405.989777
-7408.539894	4184.301333	1076.625977	261.838989
-7408.539894	4184.301333	1075.479492	70.372192
-7408.539894	4184.301333	1074.332031	290.774658
-7408.539894	4184.301333	1073.185547	344.908478
-7408.539894	4184.301333	1072.038086	501.801941
-7408.539894	4184.301333	1070.890625	476.842194
-7408.539894	4184.301333	1069.743164	46.589813
-7408.539894	4184.301333	1068.594727	176.368118
-7408.539894	4184.301333	1067.447266	29.280380
-7408.539894	4184.301333	1066.298828	38.303272
-7408.539894	4184.301333	1065.149414	363.639679
-7408.539894	4184.301333	1064.000977	366.053619
-7408.539894	4184.301333	1062.851563	599.886475
-7408.539894	4184.301333	1061.702148	340.176544
-7408.539894	4184.301333	1060.552734	281.586060
-7408.539894	4184.301333	1059.402344	257.591980
-7408.539894	4184.301333	1058.252930	256.170197
-7408.539894	4184.301333	1057.102539	72.211990
-7408.539894	4184.301333	1055.951172	-103.819893
-7408.539894	4184.301333	1054.800781	72.658447
-7408.539894	4184.301333	1053.649414	205.309250
-7408.539894	4184.301333	1052.498047	144.452896
-7408.539894	4184.301333	1051.346680	20.497757
-7408.539894	4184.301333	1050.194336	-105.841591
-7408.539894	4184.301333	1049.042969	304.054840
-7408.539894	4184.301333	1047.890625	-45.604641
-7408.539894	4184.301333	1046.738281	-192.311691
-7408.539894	4184.301333	1045.584961	18.269062
-7408.539894	4184.301333	1044.431641	113.052452
-7408.539894	4184.301333	1043.278320	308.562103
-7408.539894	4184.301333	1042.125000	-15.623635
-7408.539894	4184.301333	1040.971680	11.993482
-7408.539894	4184.301333	1039.817383	-34.411743
-7408.539894	4184.301333	1038.663086	-178.820480
-7408.539894	4184.301333	1037.508789	-44.523506
-7408.539894	4184.301333	1036.353516	-26.494703
-7408.539894	4184.301333	1035.198242	98.066299
-7408.539894	4184.301333	1034.042969	208.653900
-7408.539894	4184.301333	1032.887695	-95.878105
-7408.539894	4184.301333	1031.732422	154.122894
-7408.539894	4184.301333	1030.576172	402.334930
-7408.539894	4184.301333	1029.419922	-151.255554
-7408.539894	4184.301333	1028.263672	215.472809
-7408.539894	4184.301333	1027.106445	329.570862
-7408.539894	4184.301333	1025.949219	-27.585983
-7408.539894	4184.301333	1024.792969	25.385746
-7408.539894	4184.301333	1023.634766	149.918808
-7408.539894	4184.301333	1022.477539	9.856508
-7408.539894	4184.301333	1021.319336	-139.522568
-7408.539894	4184.301333	1020.161133	-143.174622
-7408.539894	4184.301333	1019.002930	-2.820003
-7408.539894	4184.301333	1017.843750	-386.404572
-7408.539894	4184.301333	1016.684570	-108.339355
-7408.539894	4184.301333	1015.525391	-53.514595
-7408.539894	4184.301333	1014.366211	-2.259988
-7408.539894	4184.301333	1013.207031	-156.334930
-7408.539894	4184.301333	1012.046875	48.941307
-7408.539894	4184.301333	1010.886719	-142.662170
-7408.539894	4184.301333	1009.726563	-205.439865
-7408.539894	4184.301333	1008.565430	-18.182011
-7408.539894	4184.301333	1007.404297	49.001881
-7408.539894	4184.301333	1006.243164	234.282150
-7408.539894	4184.301333	1005.082031	330.303772
-7408.539894	4184.301333	1003.920898	311.147217
-7408.539894	4184.301333	1002.758789	452.957458
-7408.539894	4184.301333	1001.596680	213.566833
-7408.539894	4184.301333	1000.433594	149.440445
-7408.539894	4184.301333	999.271484	227.178619
-7408.539894	4184.301333	998.108398	475.838043
-7408.539894	4184.301333	996.945313	79.309959
-7408.539894	4184.301333	995.782227	225.684692
-7408.539894	4184.301333	994.618164	408.874237
-7408.539894	4184.301333	993.454102	481.713501
-7408.539894	4184.301333	992.290039	35.800591
-7408.539894	4184.301333	991.125977	100.827415
-7408.539894	4184.301333	989.960938	459.354126
-7408.539894	4184.301333	988.796875	301.826294
-7408.539894	4184.301333	987.630859	63.854782
-7408.539894	4184.301333	986.465820	369.312134
-7408.539894	4184.301333	985.300781	144.594376
-7408.539894	4184.301333	984.134766	610.999573
-7408.539894	4184.301333	982.968750	469.781372
-7408.539894	4184.301333	981.801758	471.259155
-7408.539894	4184.301333	980.635742	382.311157
-7408.539894	4184.301333	979.468750	270.300323
-7408.539894	4184.301333	978.301758	92.933617
-7408.539894	4184.301333	977.133789	-91.710022
-7408.539894	4184.301333	975.966797	103.006073
-7408.539894	4184.301333	974.798828	89.325081
-7408.539894	4184.301333	973.630859	19.739479
-7408.539894	4184.301333	972.461914	-202.933792
-7408.539894	4184.301333	971.293945	-160.457901
-7408.539894	4184.301333	970.125000	259.222321
-7408.539894	4184.301333	968.956055	-200.279312
-7408.539894	4184.301333	967.786133	-198.030853
-7408.539894	4184.301333	966.617188	10.542988
-7408.539894	4184.301333	965.447266	-12.772717
-7408.539894	4184.301333	964.276367	-124.260803
-7408.539894	4184.301333	963.106445	-20.107277
-7408.539894	4184.301333	961.935547	-237.072388
-7408.539894	4184.301333	960.764648	154.653549
-7408.539894	4184.301333	959.593750	-99.577347
-7408.539894	4184.301333	958.422852	30.010914
-7408.539894	4184.301333	957.250977	-185.130814
-7408.539894	4184.301333	956.079102	96.262505
-7408.539894	4184.301333	954.907227	112.939491
-7408.539894	4184.301333	953.734375	7.112549
-7408.539894	4184.301333	952.562500	-128.879700
-7408.539894	4184.301333	951.389648	-183.716614
-7408.539894	4184.301333	950.215820	266.322937
-7408.539894	4184.301333	949.042969	-20.019756
-7408.539894	4184.301333	947.869141	47.442822
-7408.539894	4184.301333	946.695313	-31.252333
-7408.539894	4184.301333	945.521484	-48.063602
-7408.539894	4184.301333	944.346680	182.101807
-7408.539894	4184.301333	943.172852	62.007309
-7408.539894	4184.301333	941.998047	45.310501
-7408.539894	4184.301333	940.822266	126.912193
-7408.539894	4184.301333	939.647461	71.851547
-7408.539894	4184.301333	938.471680	-22.055979
-7408.539894	4184.301333	937.295898	207.984909
-7408.539894	4184.301333	936.119141	-236.976364
-7408.539894	4184.301333	934.943359	120.867401
-7408.539894	4184.301333	933.766602	-3.096530
-7408.539894	4184.301333	932.589844	202.743774
-7408.539894	4184.301333	931.413086	-164.923584
-7408.539894	4184.301333	930.235352	-83.916618
-7408.539894	4184.301333	929.057617	38.495899
-7408.539894	4184.301333	927.879883	-29.122932
-7408.539894	4184.301333	926.702148	60.487259
-7408.539894	4184.301333	925.523438	16.484802
-7408.539894	4184.301333	924.344727	198.026932
-7408.539894	4184.301333	923.166016	142.045868
-7408.539894	4184.301333	921.987305	-44.514420
-7408.539894	4184.301333	920.807617	-189.519226
-7408.539894	4184.301333	919.627930	-185.643188
-7408.539894	4184.301333	919.497070	84.096344
-7408.539894	4184.301333	918.331055	309.629700
-7408.539894	4184.301333	917.165039	134.786743
-7408.539894	4184.301333	915.999023	131.874649
-7408.539894	4184.301333	914.833008	120.019012
-7408.539894	4184.301333	913.666016	60.711624
-7408.539894	4184.301333	912.499023	-137.850769
-7408.539894	4184.301333	911.332031	-342.308228
-7408.539894	4184.301333	910.165039	-28.556648
-7408.539894	4184.301333	908.997070	-55.428661
-7408.539894	4184.301333	907.830078	-73.466393
-7408.539894	4184.301333	906.661133	367.137726
-7408.539894	4184.301333	905.493164	17.555765
-7408.539894	4184.301333	904.325195	-74.584007
-7408.539894	4184.301333	903.156250	87.602394
-7408.539894	4184.301333	901.987305	-182.019943
-7408.539894	4184.301333	900.818359	-82.053986
-7408.539894	4184.301333	899.648438	150.827469
-7408.539894	4184.301333	898.478516	49.649799
-7408.539894	4184.301333	897.308594	99.142044
-7408.539894	4184.301333	896.138672	65.859436
-7408.539894	4184.301333	894.968750	121.142357
-7408.539894	4184.301333	893.797852	8.059983
-7408.539894	4184.301333	892.626953	-28.268377
-7408.539894	4184.301333	891.456055	437.108978
-7408.539894	4184.301333	890.284180	557.013062
-7408.539894	4184.301333	889.113281	423.106049
-7408.539894	4184.301333	887.941406	321.658417
-7408.539894	4184.301333	886.768555	547.547485
-7408.539894	4184.301333	885.596680	602.294983
-7408.539894	4184.301333	884.423828	173.544235
-7408.539894	4184.301333	883.250977	434.567078
-7408.539894	4184.301333	882.078125	562.846436
-7408.539894	4184.301333	880.905273	437.679749
-7408.539894	4184.301333	879.731445	698.368042
-7408.539894	4184.301333	878.557617	496.583862
-7408.539894	4184.301333	877.383789	612.811951
-7408.539894	4184.301333	876.209961	319.798981
-7408.539894	4184.301333	875.035156	171.074432
-7408.539894	4184.301333	873.860352	343.090118
-7408.539894	4184.301333	872.685547	459.106293
-7408.539894	4184.301333	871.510742	492.683990
-7408.539894	4184.301333	870.334961	752.635742
-7408.539894	4184.301333	869.159180	912.487732
-7408.539894	4184.301333	867.983398	410.884979
-7408.539894	4184.301333	866.807617	746.995850
-7408.539894	4184.301333	865.630859	551.130859
-7408.539894	4184.301333	864.454102	452.251770
-7408.539894	4184.301333	863.277344	547.216553
-7408.539894	4184.301333	862.100586	404.265717
-7408.539894	4184.301333	860.922852	522.621887
-7408.539894	4184.301333	859.745117	479.465576
-7408.539894	4184.301333	858.567383	524.330505
-7408.539894	4184.301333	857.389648	140.791260
-7408.539894	4184.301333	856.210938	314.710815
-7408.539894	4184.301333	855.032227	327.228912
-7408.539894	4184.301333	853.853516	190.172119
-7408.539894	4184.301333	852.674805	17.962667
-7408.539894	4184.301333	851.495117	399.738831
-7408.539894	4184.301333	850.315430	227.497833
-7408.539894	4184.301333	849.135742	591.437317
-7408.539894	4184.301333	847.956055	460.178711
-7408.539894	4184.301333	846.775391	700.866028
-7408.539894	4184.301333	845.595703	326.563904
-7408.539894	4184.301333	844.415039	321.229858
-7408.539894	4184.301333	843.233398	415.379791
-7408.539894	4184.301333	842.052734	369.010071
-7408.539894	4184.301333	840.871094	553.746033
-7408.539894	4184.301333	839.689453	179.725723
-7408.539894	4184.301333	838.506836	127.505028
-7408.539894	4184.301333	837.325195	335.488678
-7408.539894	4184.301333	836.142578	93.204185
-7408.539894	4184.301333	834.959961	-11.647890
-7408.539894	4184.301333	833.777344	32.532352
-7408.539894	4184.301333	832.593750	-57.707092
-7408.539894	4184.301333	831.410156	202.547256
-7408.539894	4184.301333	830.226563	126.860146
-7408.539894	4184.301333	829.042969	27.825600
-7408.539894	4184.301333	827.858398	-120.813187
-7408.539894	4184.301333	826.673828	346.341705
-7408.539894	4184.301333	825.489258	136.380386
-7408.539894	4184.301333	824.304688	98.588249
-7408.539894	4184.301333	823.120117	89.955795
-7408.539894	4184.301333	821.934570	215.433121
-7408.539894	4184.301333	820.749023	276.701416
-7408.539894	4184.301333	819.562500	61.027134
-7408.539894	4184.301333	818.376953	238.819427
-7408.539894	4184.301333	817.190430	-61.291374
-7408.539894	4184.301333	816.003906	-201.092789
-7408.539894	4184.301333	814.817383	14.438818
-7408.539894	4184.301333	813.629883	49.337387
-7408.539894	4184.301333	812.442383	-93.375977
-7408.539894	4184.301333	811.254883	-9.035064
-7408.539894	4184.301333	810.067383	22.873968
-7408.539894	4184.301333	808.878906	-6.345507
-7408.539894	4184.301333	807.690430	377.454620
-7408.539894	4184.301333	806.501953	31.155365
-7408.539894	4184.301333	805.313477	446.731506
-7408.539894	4184.301333	804.124023	-79.705109
-7408.539894	4184.301333	802.934570	187.462448
-7408.539894	4184.301333	801.745117	309.218658
-7408.539894	4184.301333	800.555664	332.132050
-7408.539894	4184.301333	799.365234	506.046783
-7408.539894	4184.301333	798.175781	345.929138
-7408.539894	4184.301333	796.985352	322.309143
-7408.539894	4184.301333	795.793945	199.991577
-7408.539894	4184.301333	794.603516	-119.635414
-7408.539894	4184.301333	793.412109	59.899540
-7408.539894	4184.301333	792.220703	137.813034
-7408.539894	4184.301333	791.028320	24.257734
-7408.539894	4184.301333	789.836914	139.801575
-7408.539894	4184.301333	788.644531	217.591583
-7408.539894	4184.301333	787.452148	304.026031
-7408.539894	4184.301333	786.258789	-6.596055
-7408.539894	4184.301333	785.066406	65.324646
-7408.539894	4184.301333	783.873047	73.470161
-7408.539894	4184.301333	782.679688	-205.112793
-7408.539894	4184.301333	781.485352	-144.832230
-7408.539894	4184.301333	780.291992	-6.436465
-7408.539894	4184.301333	779.097656	143.459549
-7408.539894	4184.301333	777.903320	6.806858
-7408.539894	4184.301333	776.708008	-86.413979
-7408.539894	4184.301333	775.512695	-104.410088
-7408.539894	4184.301333	774.318359	10.605609
-7408.539894	4184.301333	773.122070	-154.894135
-7408.539894	4184.301333	771.926758	-421.516846
-7408.539894	4184.301333	770.730469	-84.032074
-7408.539894	4184.301333	769.534180	-38.537495
-7408.539894	4184.301333	768.337891	220.691467
-7408.539894	4184.301333	767.141602	46.561039
-7408.539894	4184.301333	765.944336	117.932426
-7408.539894	4184.301333	764.747070	391.344696
-7408.539894	4184.301333	763.549805	456.801727
-7408.539894	4184.301333	762.351563	591.473206
-7408.539894	4184.301333	761.154297	590.462891
-7408.539894	4184.301333	759.956055	508.664948
-7408.539894	4184.301333	758.757813	271.143890
-7408.539894	4184.301333	757.558594	371.061615
-7408.539894	4184.301333	756.359375	101.918114
-7408.539894	4184.301333	755.160156	328.607880
-7408.539894	4184.301333	753.960938	10.558577
-7408.539894	4184.301333	752.761719	130.535706
-7408.539894	4184.301333	751.561523	230.279160
-7408.539894	4184.301333	750.361328	18.941408
-7408.539894	4184.301333	749.160156	-103.073639
-7408.539894	4184.301333	747.959961	105.982491
-7408.539894	4184.301333	746.758789	124.982162
-7408.539894	4184.301333	745.557617	74.894279
-7408.539894	4184.301333	744.356445	65.083954
-7408.539894	4184.301333	743.154297	-54.041080
-7408.539894	4184.301333	741.952148	-14.978699
-7408.539894	4184.301333	740.750000	-122.580589
-7408.539894	4184.301333	739.547852	51.533966
-7408.539894	4184.301333	738.344727	-262.993011
-7408.539894	4184.301333	737.142578	2.975860
-7408.539894	4184.301333	735.939453	208.488419
-7408.539894	4184.301333	734.735352	118.075699
-7408.539894	4184.301333	733.532227	122.435738
-7408.539894	4184.301333	732.328125	241.602570
-7408.539894	4184.301333	731.124023	-64.095375
-7408.539894	4184.301333	729.918945	341.975983
-7408.539894	4184.301333	728.714844	406.442505
-7408.539894	4184.301333	727.509766	255.728714
-7408.539894	4184.301333	726.303711	239.838287
-7408.539894	4184.301333	725.098633	129.315201
-7408.539894	4184.301333	723.892578	208.011551
-7408.539894	4184.301333	722.686523	-17.148403
-7408.539894	4184.301333	721.480469	-130.487122
-7408.539894	4184.301333	720.274414	102.840912
-7408.539894	4184.301333	719.067383	152.735199
-7408.539894	4184.301333	717.860352	-23.641697
-7408.539894	4184.301333	716.653320	126.413170
-7408.539894	4184.301333	715.445313	-121.495689
-7408.539894	4184.301333	714.238281	-332.120880
-7408.539894	4184.301333	713.030273	-102.057915
-7408.539894	4184.301333	711.821289	-106.689842
-7408.539894	4184.301333	710.613281	-185.704712
-7408.539894	4184.301333	709.404297	-347.635651
-7408.539894	4184.301333	708.195313	-446.632416
-7408.539894	4184.301333	706.986328	-368.404205
-7408.539894	4184.301333	705.776367	-213.083023
-7408.539894	4184.301333	704.566406	-9.283422
-7408.539894	4184.301333	703.356445	20.160389
-7408.539894	4184.301333	702.146484	-124.640472
-7408.539894	4184.301333	700.935547	250.240509
-7408.539894	4184.301333	699.724609	102.540421
-7408.539894	4184.301333	698.513672	3.391847
-7408.539894	4184.301333	697.302734	-335.430054
-7408.539894	4184.301333	696.090820	-226.246841
-7408.539894	4184.301333	694.878906	230.830917
-7408.539894	4184.301333	693.666992	48.924129
-7408.539894	4184.301333	692.455078	97.997421
-7408.539894	4184.301333	691.242188	223.981033
-7408.539894	4184.301333	690.029297	13.602462
-7408.539894	4184.301333	688.816406	267.703278
-7408.539894	4184.301333	687.602539	313.717560
-7408.539894	4184.301333	686.389648	-19.104414
-7408.539894	4184.301333	685.175781	6.955375
-7408.539894	4184.301333	683.960938	112.683739
-7408.539894	4184.301333	682.747070	27.639700
-7408.539894	4184.301333	681.532227	-156.997955
-7408.539894	4184.301333	680.317383	-111.144142
-7408.539894	4184.301333	679.102539	-133.607666
-7408.539894	4184.301333	677.886719	94.162567
-7408.539894	4184.301333	676.670898	17.575943
-7408.539894	4184.301333	675.455078	191.142014
-7408.539894	4184.301333	674.239258	293.550049
-7408.539894	4184.301333	673.022461	299.272888
-7408.539894	4184.301333	671.805664	179.960281
-7408.539894	4184.301333	670.588867	-18.860632
-7408.539894	4184.301333	669.372070	-47.254501
-7408.539894	4184.301333	668.154297	111.704575
-7408.539894	4184.301333	666.936523	43.484795
-7408.539894	4184.301333	665.718750	-75.820282
-7408.539894	4184.301333	664.500977	68.753998
-7408.539894	4184.301333	663.282227	420.305328
-7408.539894	4184.301333	662.063477	130.725830
-7408.539894	4184.301333	660.844727	65.232124
-7408.539894	4184.301333	659.625000	30.914026
-7408.539894	4184.301333	658.405273	155.290695
-7408.539894	4184.301333	657.185547	135.063156
-7408.539894	4184.301333	655.965820	293.289795
-7408.539894	4184.301333	654.745117	318.284973
-7408.539894	4184.301333	653.525391	377.218384
-7408.539894	4184.301333	652.303711	232.234344
-7408.539894	4184.301333	651.083008	291.084686
-7408.539894	4184.301333	649.861328	423.450836
-7408.539894	4184.301333	648.640625	182.237076
-7408.539894	4184.301333	647.417969	221.142151
-7408.539894	4184.301333	646.196289	299.590088
-7408.539894	4184.301333	644.973633	312.928101
-7408.539894	4184.301333	643.750977	286.642517
-7408.539894	4184.301333	642.528320	189.668793
-7408.539894	4184.301333	641.305664	-127.721718
-7408.539894	4184.301333	640.082031	-72.080231
-7408.539894	4184.301333	638.858398	150.153961
-7408.539894	4184.301333	637.634766	101.142845
-7408.539894	4184.301333	636.410156	280.813660
-7408.539894	4184.301333	635.185547	485.774078
-7408.539894	4184.301333	633.960938	21.729109
-7408.539894	4184.301333	632.736328	172.967697
-7408.539894	4184.301333	631.510742	101.233398
-7408.539894	4184.301333	630.285156	322.821503
-7408.539894	4184.301333	629.059570	222.808151
-7408.539894	4184.301333	627.833984	114.339722
-7408.539894	4184.301333	626.607422	256.739746
-7408.539894	4184.301333	625.380859	162.317368
-7408.539894	4184.301333	624.154297	-25.081797
-7408.539894	4184.301333	622.927734	74.884026
-7408.539894	4184.301333	621.700195	146.598801
-7408.539894	4184.301333	620.472656	150.666702
-7408.539894	4184.301333	619.245117	98.390434
-7408.539894	4184.301333	618.016602	136.157822
-7408.539894	4184.301333	616.788086	97.893433
-7408.539894	4184.301333	615.559570	104.616798
-7408.539894	4184.301333	614.331055	443.199005
-7408.539894	4184.301333	613.101563	109.496513
-7408.539894	4184.301333	611.872070	326.953583
-7408.539894	4184.301333	610.642578	358.755798
-7408.539894	4184.301333	609.413086	269.658997
-7408.539894	4184.301333	608.182617	-125.703125
-7408.539894	4184.301333	606.952148	-4.057999
-7408.539894	4184.301333	605.721680	75.367828
-7408.539894	4184.301333	604.491211	202.455261
-7408.539894	4184.301333	603.259766	242.416016
-7408.539894	4184.301333	602.028320	122.333328
-7408.539894	4184.301333	600.796875	173.437714
-7408.539894	4184.301333	599.564453	81.391991
-7408.539894	4184.301333	598.332031	143.619354
-7408.539894	4184.301333	597.099609	-175.616486
-7408.539894	4184.301333	595.867188	12.727544
-7408.539894	4184.301333	594.633789	-124.221001
-7408.539894	4184.301333	593.400391	246.113541
-7408.539894	4184.301333	592.166992	148.321106
-7408.539894	4184.301333	590.933594	190.599045
-7408.539894	4184.301333	589.699219	-117.284546
-7408.539894	4184.301333	588.464844	-206.660110
-7408.539894	4184.301333	587.230469	-192.453339
-7408.539894	4184.301333	585.995117	182.773743
-7408.539894	4184.301333	584.760742	-27.061501
-7408.539894	4184.301333	583.525391	-27.014942
-7408.539894	4184.301333	582.289063	0.960330
-7408.539894	4184.301333	581.053711	-80.179054
-7408.539894	4184.301333	579.817383	90.313614
-7408.539894	4184.301333	578.581055	73.401100
-7408.539894	4184.301333	577.343750	-125.211243
-7408.539894	4184.301333	576.107422	64.622917
-7408.539894	4184.301333	574.870117	69.954758
-7408.539894	4184.301333	573.631836	86.413231
-7408.539894	4184.301333	572.394531	97.244469
-7408.539894	4184.301333	571.156250	-213.031769
-7408.539894	4184.301333	569.917969	-157.561874
-7408.539894	4184.301333	568.679688	123.886742
-7408.539894	4184.301333	567.440430	-94.244438
-7408.539894	4184.301333	566.202148	186.996063
-7408.539894	4184.301333	564.961914	91.572914
-7408.539894	4184.301333	563.722656	263.830353
-7408.539894	4184.301333	562.482422	-26.780548
-7408.539894	4184.301333	561.243164	39.445782
-7408.539894	4184.301333	560.001953	-53.233334
-7408.539894	4184.301333	558.761719	191.186844
-7408.539894	4184.301333	557.520508	229.350494
-7408.539894	4184.301333	556.279297	-111.257591
-7408.539894	4184.301333	555.038086	27.106884
-7408.539894	4184.301333	553.795898	318.463257
-7408.539894	4184.301333	552.554688	156.050659
-7408.539894	4184.301333	551.311523	63.219646
-7408.539894	4184.301333	550.069336	365.397369
-7408.539894	4184.301333	548.826172	-27.872023
-7408.539894	4184.301333	547.583984	-195.782715
-7408.539894	4184.301333	546.339844	247.917831
-7408.539894	4184.301333	545.096680	191.116028
-7408.539894	4184.301333	543.852539	195.430084
-7408.539894	4184.301333	542.608398	52.466129
-7408.539894	4184.301333	541.364258	-62.697582
-7408.539894	4184.301333	540.119141	63.743111
-7408.539894	4184.301333	538.875000	117.914619
-7408.539894	4184.301333	537.628906	199.775940
-7408.539894	4184.301333	536.383789	-9.823109
-7408.539894	4184.301333	535.137695	-36.249107
-7408.539894	4184.301333	533.892578	95.423355
-7408.539894	4184.301333	532.645508	18.990843
-7408.539894	4184.301333	531.399414	250.338577
-7408.539894	4184.301333	530.152344	-9.128743
-7408.539894	4184.301333	528.905273	58.527222
-7408.539894	4184.301333	527.658203	203.708862
-7408.539894	4184.301333	526.410156	107.760971
-7408.539894	4184.301333	525.163086	-154.363403
-7408.539894	4184.301333	523.914063	-250.266754
-7408.539894	4184.301333	522.666016	124.506912
-7408.539894	4184.301333	521.416992	-68.366676
-7408.539894	4184.301333	520.167969	-241.820175
-7408.539894	4184.301333	518.918945	-119.181778
-7408.539894	4184.301333	517.669922	-162.607788
-7408.539894	4184.301333	516.419922	-297.320129
-7408.539894	4184.301333	515.169922	57.404846
-7408.539894	4184.301333	513.919922	-193.477936
-7408.539894	4184.301333	512.668945	-209.362396
-7408.539894	4184.301333	511.417969	-139.616669
-7408.539894	4184.301333	510.166992	-199.781982
-7408.539894	4184.301333	508.916016	-246.147583
-7408.539894	4184.301333	507.664063	-96.468933
-7408.539894	4184.301333	506.412109	58.629978
-7408.539894	4184.301333	505.160156	-225.265198
-7408.539894	4184.301333	503.907227	260.880981
-7408.539894	4184.301333	502.655273	-64.397873
-7408.539894	4184.301333	501.402344	26.957628
-7408.539894	4184.301333	500.148438	-292.703369
-7408.539894	4184.301333	498.895508	-110.423363
-7408.539894	4184.301333	497.641602	237.138046
-7408.539894	4184.301333	496.387695	-24.602152
-7408.539894	4184.301333	495.132813	11.324650
-7408.539894	4184.301333	493.878906	256.579224
-7408.539894	4184.301333	492.624023	132.593353
-7408.539894	4184.301333	491.368164	380.372192
-7408.539894	4184.301333	490.113281	176.484802
-7408.539894	4184.301333	488.857422	-57.643196
-7408.539894	4184.301333	487.601563	294.461792
-7408.539894	4184.301333	486.344727	244.656540
-7408.539894	4184.301333	485.088867	-11.478063
-7408.539894	4184.301333	483.832031	-198.801971
-7408.539894	4184.301333	482.575195	-64.384613
-7408.539894	4184.301333	481.317383	-97.771835
-7408.539894	4184.301333	480.059570	39.207130
-7408.539894	4184.301333	478.801758	-186.640167
-7408.539894	4184.301333	477.543945	-93.760162
-7408.539894	4184.301333	476.285156	-245.433395
-7408.539894	4184.301333	475.027344	28.550047
-7408.539894	4184.301333	473.767578	101.928673
-7408.539894	4184.301333	472.508789	-112.991730
-7408.539894	4184.301333	471.249023	-78.154381
-7408.539894	4184.301333	469.989258	167.875031
-7408.539894	4184.301333	468.729492	251.891876
-7408.539894	4184.301333	467.469727	-152.361267
-7408.539894	4184.301333	466.208984	63.164314
-7408.539894	4184.301333	464.948242	347.064941
-7408.539894	4184.301333	463.686523	162.098053
-7408.539894	4184.301333	462.425781	23.729710
-7408.539894	4184.301333	461.164063	33.277130
-7408.539894	4184.301333	459.901367	-187.334076
-7408.539894	4184.301333	458.639648	2.836828
-7408.539894	4184.301333	457.376953	39.522552
-7408.539894	4184.301333	456.114258	133.592697
-7408.539894	4184.301333	454.851563	-84.433525
-7408.539894	4184.301333	453.587891	159.926804
-7408.539894	4184.301333	452.324219	89.517853
-7408.539894	4184.301333	451.060547	177.669098
-7408.539894	4184.301333	449.796875	74.290009
-7408.539894	4184.301333	448.532227	-206.834351
-7408.539894	4184.301333	447.267578	14.944730
-7408.539894	4184.301333	446.002930	67.112640
-7408.539894	4184.301333	444.737305	-58.426956
-7408.539894	4184.301333	443.471680	116.419899
-7408.539894	4184.301333	442.206055	83.546486
-7408.539894	4184.301333	440.940430	-58.634499
-7408.539894	4184.301333	439.673828	156.686111
-7408.539894	4184.301333	438.407227	268.092407
-7408.539894	4184.301333	437.140625	349.309265
-7408.539894	4184.301333	435.873047	13.010476
-7408.539894	4184.301333	434.605469	162.155029
-7408.539894	4184.301333	433.337891	302.914734
-7408.539894	4184.301333	432.070313	-77.187187
-7408.539894	4184.301333	430.801758	243.141266
-7408.539894	4184.301333	429.533203	328.847321
-7408.539894	4184.301333	428.264648	264.528015
-7408.539894	4184.301333	426.996094	259.995117
-7408.539894	4184.301333	425.726563	298.858032
-7408.539894	4184.301333	424.457031	310.308014
-7408.539894	4184.301333	423.186523	335.176514
-7408.539894	4184.301333	421.916992	144.884781
-7408.539894	4184.301333	420.646484	212.940231
-7408.539894	4184.301333	419.375977	123.008667
-7408.539894	4184.301333	418.104492	-10.603056
-7408.539894	4184.301333	416.833008	37.804031
-7408.539894	4184.301333	415.561523	12.585293
-7408.539894	4184.301333	414.290039	-69.911880
-7408.539894	4184.301333	413.017578	83.784103
-7408.539894	4184.301333	411.746094	93.214760
-7408.539894	4184.301333	410.472656	181.148392
-7408.539894	4184.301333	409.200195	257.945831
-7408.539894	4184.301333	407.926758	30.396767
-7408.539894	4184.301333	406.653320	90.389526
-7408.539894	4184.301333	405.379883	158.231216
-7408.539894	4184.301333	404.105469	60.263870
-7408.539894	4184.301333	402.831055	70.553574
-7408.539894	4184.301333	401.556641	107.666595
-7408.539894	4184.301333	400.282227	174.290100
-7408.539894	4184.301333	399.006836	118.584778
-7408.539894	4184.301333	397.731445	-178.605942
-7408.539894	4184.301333	396.456055	14.420108
-7408.539894	4184.301333	395.179688	47.189415
-7408.539894	4184.301333	393.903320	6.479054
-7408.539894	4184.301333	392.626953	225.371368
-7408.539894	4184.301333	391.350586	-40.768284
-7408.539894	4184.301333	390.073242	-220.571671
-7408.539894	4184.301333	388.795898	97.211037
-7408.539894	4184.301333	387.518555	376.587036
-7408.539894	4184.301333	386.240234	95.534286
-7408.539894	4184.301333	384.961914	-7.337916
-7408.539894	4184.301333	383.683594	-18.671572
-7408.539894	4184.301333	382.405273	172.283646
-7408.539894	4184.301333	381.125977	14.075623
-7408.539894	4184.301333	379.846680	231.026733
-7408.539894	4184.301333	378.567383	90.841591
-7408.539894	4184.301333	377.287109	-114.605736
-7408.539894	4184.301333	376.006836	111.542496
-7408.539894	4184.301333	374.726563	72.527130
-7408.539894	4184.301333	373.446289	57.289890
-7408.539894	4184.301333	372.165039	9.114241
-7408.539894	4184.301333	370.883789	-58.483570
-7408.539894	4184.301333	369.602539	91.839622
-7408.539894	4184.301333	368.320313	241.490021
-7408.539894	4184.301333	367.039063	123.593155
-7408.539894	4184.301333	365.755859	-118.902100
-7408.539894	4184.301333	364.473633	-135.545731
-7408.539894	4184.301333	363.190430	-31.619843
-7408.539894	4184.301333	361.907227	-192.380875
-7408.539894	4184.301333	360.624023	330.265900
-7408.539894	4184.301333	359.340820	230.032120
-7408.539894	4184.301333	358.056641	-97.018661
-7408.539894	4184.301333	356.772461	83.978790
-7408.539894	4184.301333	355.487305	-107.197014
-7408.539894	4184.301333	354.202148	64.089012
-7408.539894	4184.301333	352.916992	153.820007
-7408.539894	4184.301333	351.631836	296.472870
-7408.539894	4184.301333	350.346680	368.328827
-7408.539894	4184.301333	349.060547	243.061768
-7408.539894	4184.301333	347.774414	178.774521
-7408.539894	4184.301333	346.487305	67.914185
-7408.539894	4184.301333	345.200195	224.775421
-7408.539894	4184.301333	343.913086	90.598289
-7408.539894	4184.301333	342.625977	-82.072906
-7408.539894	4184.301333	341.338867	61.075253
-7408.539894	4184.301333	340.050781	270.202789
-7408.539894	4184.301333	338.762695	220.627182
-7408.539894	4184.301333	337.473633	-125.095665
-7408.539894	4184.301333	336.184570	-96.298126
-7408.539894	4184.301333	334.895508	-285.813660
-7408.539894	4184.301333	333.606445	-227.081696
-7408.539894	4184.301333	332.317383	-169.545990
-7408.539894	4184.301333	331.027344	-70.395584
-7408.539894	4184.301333	329.736328	-299.386566
-7408.539894	4184.301333	328.446289	-189.337143
-7408.539894	4184.301333	327.155273	-174.382706
-7408.539894	4184.301333	325.864258	-147.358765
-7408.539894	4184.301333	324.573242	242.330719
-7408.539894	4184.301333	323.281250	-92.094299
-7408.539894	4184.301333	321.989258	144.768234
-7408.539894	4184.301333	320.697266	0.262705
-7408.539894	4184.301333	319.405273	-33.327625
-7408.539894	4184.301333	318.112305	-14.978898
-7408.539894	4184.301333	316.819336	106.078064
-7408.539894	4184.301333	315.526367	-47.082275
-7408.539894	4184.301333	314.232422	-12.124985
-7408.539894	4184.301333	312.938477	133.374954
-7408.539894	4184.301333	311.644531	167.632706
-7408.539894	4184.301333	310.349609	-29.526320
-7408.539894	4184.301333	309.054688	35.939789
-7408.539894	4184.301333	307.759766	62.220837
-7408.539894	4184.301333	306.464844	22.623182
-7408.539894	4184.301333	305.168945	287.917297
-7408.539894	4184.301333	303.873047	127.092979
-7408.539894	4184.301333	302.577148	135.058014
-7408.539894	4184.301333	301.281250	511.617981
-7408.539894	4184.301333	299.984375	96.921417
