#X		#Y		#Wave		#Intensity
-7415.047181	4241.837167	1999.946289	141.641647
-7415.047181	4241.837167	1998.981445	250.899734
-7415.047181	4241.837167	1998.017578	1.858206
-7415.047181	4241.837167	1997.052734	147.305984
-7415.047181	4241.837167	1996.088867	159.295059
-7415.047181	4241.837167	1995.124023	208.791229
-7415.047181	4241.837167	1994.159180	149.646759
-7415.047181	4241.837167	1993.193359	-50.289566
-7415.047181	4241.837167	1992.228516	203.263718
-7415.047181	4241.837167	1991.262695	100.582809
-7415.047181	4241.837167	1990.296875	112.096581
-7415.047181	4241.837167	1989.331055	146.176361
-7415.047181	4241.837167	1988.365234	39.517952
-7415.047181	4241.837167	1987.398438	-9.938777
-7415.047181	4241.837167	1986.432617	0.256101
-7415.047181	4241.837167	1985.465820	47.789013
-7415.047181	4241.837167	1984.499023	216.692764
-7415.047181	4241.837167	1983.532227	-83.843628
-7415.047181	4241.837167	1982.565430	18.775309
-7415.047181	4241.837167	1981.597656	-24.199213
-7415.047181	4241.837167	1980.629883	59.044670
-7415.047181	4241.837167	1979.662109	26.384256
-7415.047181	4241.837167	1978.694336	-11.002190
-7415.047181	4241.837167	1977.726563	-75.339523
-7415.047181	4241.837167	1976.758789	53.072392
-7415.047181	4241.837167	1975.790039	-84.936745
-7415.047181	4241.837167	1974.821289	93.123482
-7415.047181	4241.837167	1973.852539	78.846291
-7415.047181	4241.837167	1972.883789	-85.734474
-7415.047181	4241.837167	1971.915039	-111.998848
-7415.047181	4241.837167	1970.945313	-110.992439
-7415.047181	4241.837167	1969.975586	-48.219002
-7415.047181	4241.837167	1969.005859	76.281754
-7415.047181	4241.837167	1968.036133	-8.611754
-7415.047181	4241.837167	1967.066406	-49.006310
-7415.047181	4241.837167	1966.096680	-205.055405
-7415.047181	4241.837167	1965.125977	42.982189
-7415.047181	4241.837167	1964.155273	-29.100267
-7415.047181	4241.837167	1963.184570	-197.081802
-7415.047181	4241.837167	1962.213867	-150.752029
-7415.047181	4241.837167	1961.242188	-40.370743
-7415.047181	4241.837167	1960.271484	-92.352997
-7415.047181	4241.837167	1959.299805	114.077332
-7415.047181	4241.837167	1958.328125	195.051666
-7415.047181	4241.837167	1957.356445	47.343567
-7415.047181	4241.837167	1956.384766	79.246269
-7415.047181	4241.837167	1955.412109	44.811733
-7415.047181	4241.837167	1954.439453	-146.867447
-7415.047181	4241.837167	1953.467773	52.313950
-7415.047181	4241.837167	1952.495117	99.125008
-7415.047181	4241.837167	1951.521484	-84.963539
-7415.047181	4241.837167	1950.548828	-178.070770
-7415.047181	4241.837167	1949.575195	38.298595
-7415.047181	4241.837167	1948.601563	-128.398163
-7415.047181	4241.837167	1947.627930	-39.715389
-7415.047181	4241.837167	1946.654297	75.951889
-7415.047181	4241.837167	1945.680664	-100.414307
-7415.047181	4241.837167	1944.706055	76.583351
-7415.047181	4241.837167	1943.732422	30.312529
-7415.047181	4241.837167	1942.757813	57.636749
-7415.047181	4241.837167	1941.783203	-49.905071
-7415.047181	4241.837167	1940.807617	-64.248192
-7415.047181	4241.837167	1939.833008	66.030075
-7415.047181	4241.837167	1938.857422	32.060284
-7415.047181	4241.837167	1937.881836	44.651230
-7415.047181	4241.837167	1936.906250	-28.513018
-7415.047181	4241.837167	1935.930664	-42.877193
-7415.047181	4241.837167	1934.955078	65.191193
-7415.047181	4241.837167	1933.978516	36.092426
-7415.047181	4241.837167	1933.001953	-17.492153
-7415.047181	4241.837167	1932.025391	19.479374
-7415.047181	4241.837167	1931.048828	149.400574
-7415.047181	4241.837167	1930.072266	-6.993103
-7415.047181	4241.837167	1929.094727	81.249702
-7415.047181	4241.837167	1928.118164	39.817642
-7415.047181	4241.837167	1927.140625	37.493282
-7415.047181	4241.837167	1926.163086	84.032852
-7415.047181	4241.837167	1925.184570	54.748238
-7415.047181	4241.837167	1924.207031	-47.869633
-7415.047181	4241.837167	1923.228516	44.980400
-7415.047181	4241.837167	1922.250000	-143.171616
-7415.047181	4241.837167	1921.271484	25.304951
-7415.047181	4241.837167	1920.292969	-9.004164
-7415.047181	4241.837167	1919.314453	108.033737
-7415.047181	4241.837167	1918.334961	39.463184
-7415.047181	4241.837167	1917.355469	44.095955
-7415.047181	4241.837167	1916.375977	56.004375
-7415.047181	4241.837167	1915.396484	77.624107
-7415.047181	4241.837167	1914.416992	204.078369
-7415.047181	4241.837167	1913.436523	71.926407
-7415.047181	4241.837167	1912.457031	8.054319
-7415.047181	4241.837167	1911.476563	-19.276018
-7415.047181	4241.837167	1910.496094	116.663872
-7415.047181	4241.837167	1909.515625	215.951553
-7415.047181	4241.837167	1908.534180	198.197083
-7415.047181	4241.837167	1907.552734	-163.082718
-7415.047181	4241.837167	1906.572266	167.437836
-7415.047181	4241.837167	1905.590820	-16.034357
-7415.047181	4241.837167	1904.608398	-63.149170
-7415.047181	4241.837167	1903.626953	-15.357141
-7415.047181	4241.837167	1902.644531	-72.290382
-7415.047181	4241.837167	1901.663086	-19.749731
-7415.047181	4241.837167	1900.680664	103.270271
-7415.047181	4241.837167	1899.698242	34.032291
-7415.047181	4241.837167	1898.714844	147.161926
-7415.047181	4241.837167	1897.732422	94.859863
-7415.047181	4241.837167	1896.749023	190.815872
-7415.047181	4241.837167	1895.765625	-12.279301
-7415.047181	4241.837167	1894.782227	56.826340
-7415.047181	4241.837167	1893.798828	142.863358
-7415.047181	4241.837167	1892.814453	78.199425
-7415.047181	4241.837167	1891.831055	195.670776
-7415.047181	4241.837167	1890.846680	-143.481461
-7415.047181	4241.837167	1889.862305	109.842148
-7415.047181	4241.837167	1888.877930	8.618378
-7415.047181	4241.837167	1887.892578	94.252907
-7415.047181	4241.837167	1886.908203	17.233938
-7415.047181	4241.837167	1885.922852	93.030785
-7415.047181	4241.837167	1884.937500	178.452209
-7415.047181	4241.837167	1883.952148	-2.974115
-7415.047181	4241.837167	1882.965820	89.603683
-7415.047181	4241.837167	1881.980469	0.284732
-7415.047181	4241.837167	1880.994141	-4.220804
-7415.047181	4241.837167	1880.007813	136.626648
-7415.047181	4241.837167	1879.021484	144.116592
-7415.047181	4241.837167	1878.035156	-27.703638
-7415.047181	4241.837167	1877.047852	98.391693
-7415.047181	4241.837167	1876.061523	33.099037
-7415.047181	4241.837167	1875.074219	134.833221
-7415.047181	4241.837167	1874.086914	117.873421
-7415.047181	4241.837167	1873.098633	-107.262733
-7415.047181	4241.837167	1872.111328	-12.952621
-7415.047181	4241.837167	1871.123047	-245.324661
-7415.047181	4241.837167	1870.135742	32.717598
-7415.047181	4241.837167	1869.147461	85.701843
-7415.047181	4241.837167	1868.158203	3.217439
-7415.047181	4241.837167	1867.169922	152.801529
-7415.047181	4241.837167	1866.180664	145.179855
-7415.047181	4241.837167	1865.192383	65.030342
-7415.047181	4241.837167	1864.203125	-63.454586
-7415.047181	4241.837167	1863.213867	3.733330
-7415.047181	4241.837167	1862.223633	-30.583910
-7415.047181	4241.837167	1861.234375	26.838366
-7415.047181	4241.837167	1860.244141	2.112226
-7415.047181	4241.837167	1859.253906	11.151384
-7415.047181	4241.837167	1858.263672	169.779770
-7415.047181	4241.837167	1857.273438	84.611351
-7415.047181	4241.837167	1856.282227	71.807808
-7415.047181	4241.837167	1855.291992	138.576157
-7415.047181	4241.837167	1854.300781	164.284927
-7415.047181	4241.837167	1853.309570	-162.065979
-7415.047181	4241.837167	1852.317383	271.016052
-7415.047181	4241.837167	1851.326172	50.751953
-7415.047181	4241.837167	1850.333984	155.847946
-7415.047181	4241.837167	1849.342773	-57.142906
-7415.047181	4241.837167	1848.350586	14.151532
-7415.047181	4241.837167	1847.357422	196.169403
-7415.047181	4241.837167	1846.365234	12.094782
-7415.047181	4241.837167	1845.372070	292.697113
-7415.047181	4241.837167	1844.379883	-213.918503
-7415.047181	4241.837167	1843.386719	242.247726
-7415.047181	4241.837167	1842.393555	274.742828
-7415.047181	4241.837167	1841.399414	-53.651699
-7415.047181	4241.837167	1840.406250	-114.963470
-7415.047181	4241.837167	1839.412109	47.360878
-7415.047181	4241.837167	1838.417969	166.324524
-7415.047181	4241.837167	1837.423828	-118.622612
-7415.047181	4241.837167	1836.429688	106.034813
-7415.047181	4241.837167	1835.434570	-25.052750
-7415.047181	4241.837167	1834.440430	12.069759
-7415.047181	4241.837167	1833.445313	75.575577
-7415.047181	4241.837167	1832.450195	6.952339
-7415.047181	4241.837167	1831.454102	-32.854652
-7415.047181	4241.837167	1830.458984	-72.656845
-7415.047181	4241.837167	1829.462891	149.157349
-7415.047181	4241.837167	1828.466797	193.290436
-7415.047181	4241.837167	1827.470703	246.989197
-7415.047181	4241.837167	1826.474609	7.991539
-7415.047181	4241.837167	1825.478516	-111.007530
-7415.047181	4241.837167	1824.481445	96.140289
-7415.047181	4241.837167	1823.484375	245.658051
-7415.047181	4241.837167	1822.487305	-36.361816
-7415.047181	4241.837167	1821.490234	2.858637
-7415.047181	4241.837167	1820.493164	140.295609
-7415.047181	4241.837167	1819.495117	-50.545246
-7415.047181	4241.837167	1818.498047	-47.302361
-7415.047181	4241.837167	1817.500000	-166.210144
-7415.047181	4241.837167	1816.500977	45.331551
-7415.047181	4241.837167	1815.502930	-54.413338
-7415.047181	4241.837167	1814.504883	11.019779
-7415.047181	4241.837167	1813.505859	-107.844955
-7415.047181	4241.837167	1812.506836	17.368818
-7415.047181	4241.837167	1811.507813	-67.973122
-7415.047181	4241.837167	1810.508789	83.483269
-7415.047181	4241.837167	1809.508789	67.488647
-7415.047181	4241.837167	1808.508789	149.517029
-7415.047181	4241.837167	1807.508789	40.289593
-7415.047181	4241.837167	1806.508789	57.760956
-7415.047181	4241.837167	1805.508789	-82.475632
-7415.047181	4241.837167	1804.508789	-60.213634
-7415.047181	4241.837167	1803.507813	-23.637991
-7415.047181	4241.837167	1802.506836	-104.089211
-7415.047181	4241.837167	1801.505859	121.098198
-7415.047181	4241.837167	1800.504883	-85.867317
-7415.047181	4241.837167	1799.502930	101.039238
-7415.047181	4241.837167	1798.501953	56.419529
-7415.047181	4241.837167	1797.500000	-88.390739
-7415.047181	4241.837167	1796.498047	-18.466536
-7415.047181	4241.837167	1795.496094	1.351716
-7415.047181	4241.837167	1794.493164	-2.685417
-7415.047181	4241.837167	1793.491211	21.895695
-7415.047181	4241.837167	1792.488281	158.488373
-7415.047181	4241.837167	1791.485352	-5.231432
-7415.047181	4241.837167	1790.482422	83.670204
-7415.047181	4241.837167	1789.478516	-53.768070
-7415.047181	4241.837167	1788.475586	89.896980
-7415.047181	4241.837167	1787.471680	45.387798
-7415.047181	4241.837167	1786.467773	29.470095
-7415.047181	4241.837167	1785.463867	54.029896
-7415.047181	4241.837167	1784.459961	-18.989151
-7415.047181	4241.837167	1783.455078	-25.357012
-7415.047181	4241.837167	1782.450195	-17.441843
-7415.047181	4241.837167	1781.445313	14.262463
-7415.047181	4241.837167	1780.440430	-72.943069
-7415.047181	4241.837167	1779.435547	77.654686
-7415.047181	4241.837167	1778.429688	137.863892
-7415.047181	4241.837167	1777.424805	55.459507
-7415.047181	4241.837167	1776.418945	-3.148422
-7415.047181	4241.837167	1775.413086	-92.613342
-7415.047181	4241.837167	1774.406250	-3.887836
-7415.047181	4241.837167	1773.400391	-10.178503
-7415.047181	4241.837167	1772.393555	201.986267
-7415.047181	4241.837167	1771.386719	126.823067
-7415.047181	4241.837167	1770.379883	111.036140
-7415.047181	4241.837167	1769.373047	-137.303101
-7415.047181	4241.837167	1768.365234	117.463165
-7415.047181	4241.837167	1767.358398	-83.319160
-7415.047181	4241.837167	1766.350586	24.307968
-7415.047181	4241.837167	1765.342773	53.649872
-7415.047181	4241.837167	1764.334961	239.468353
-7415.047181	4241.837167	1763.326172	171.583344
-7415.047181	4241.837167	1762.318359	122.700958
-7415.047181	4241.837167	1761.309570	-32.788094
-7415.047181	4241.837167	1760.300781	41.591339
-7415.047181	4241.837167	1759.291016	-94.860344
-7415.047181	4241.837167	1758.282227	97.931007
-7415.047181	4241.837167	1757.272461	1.790744
-7415.047181	4241.837167	1756.262695	28.795492
-7415.047181	4241.837167	1755.252930	122.071243
-7415.047181	4241.837167	1754.243164	234.251785
-7415.047181	4241.837167	1753.233398	232.836136
-7415.047181	4241.837167	1752.222656	106.055397
-7415.047181	4241.837167	1751.211914	-176.759033
-7415.047181	4241.837167	1750.201172	86.759026
-7415.047181	4241.837167	1749.190430	0.298990
-7415.047181	4241.837167	1748.179688	-31.755390
-7415.047181	4241.837167	1747.167969	115.811378
-7415.047181	4241.837167	1746.156250	19.966333
-7415.047181	4241.837167	1745.144531	-99.454651
-7415.047181	4241.837167	1744.132813	62.240738
-7415.047181	4241.837167	1743.121094	-0.449538
-7415.047181	4241.837167	1742.108398	-89.083389
-7415.047181	4241.837167	1741.095703	-71.450714
-7415.047181	4241.837167	1740.083008	109.028465
-7415.047181	4241.837167	1739.070313	-5.503383
-7415.047181	4241.837167	1738.057617	-58.643044
-7415.047181	4241.837167	1737.043945	109.958817
-7415.047181	4241.837167	1736.030273	59.187012
-7415.047181	4241.837167	1735.016602	-182.539642
-7415.047181	4241.837167	1734.002930	49.664463
-7415.047181	4241.837167	1732.989258	36.670269
-7415.047181	4241.837167	1731.974609	200.416992
-7415.047181	4241.837167	1730.959961	41.337204
-7415.047181	4241.837167	1729.945313	-202.473557
-7415.047181	4241.837167	1728.930664	81.360542
-7415.047181	4241.837167	1727.916016	-115.256393
-7415.047181	4241.837167	1726.900391	-92.854851
-7415.047181	4241.837167	1725.885742	-68.095070
-7415.047181	4241.837167	1724.870117	1.369365
-7415.047181	4241.837167	1723.853516	171.981659
-7415.047181	4241.837167	1722.837891	76.720146
-7415.047181	4241.837167	1721.822266	-13.795254
-7415.047181	4241.837167	1720.805664	36.815140
-7415.047181	4241.837167	1719.789063	207.316757
-7415.047181	4241.837167	1718.772461	41.622452
-7415.047181	4241.837167	1717.754883	35.802380
-7415.047181	4241.837167	1716.738281	98.137489
-7415.047181	4241.837167	1715.720703	0.697956
-7415.047181	4241.837167	1714.703125	-89.651253
-7415.047181	4241.837167	1713.685547	-15.576375
-7415.047181	4241.837167	1712.667969	2.125468
-7415.047181	4241.837167	1711.649414	-137.460907
-7415.047181	4241.837167	1710.630859	-68.105347
-7415.047181	4241.837167	1709.612305	-184.150864
-7415.047181	4241.837167	1708.593750	-13.922915
-7415.047181	4241.837167	1707.575195	217.230606
-7415.047181	4241.837167	1706.555664	-60.616203
-7415.047181	4241.837167	1705.536133	-68.706886
-7415.047181	4241.837167	1704.516602	185.770813
-7415.047181	4241.837167	1703.497070	194.048080
-7415.047181	4241.837167	1702.477539	108.588509
-7415.047181	4241.837167	1701.457031	159.049225
-7415.047181	4241.837167	1700.437500	-41.149426
-7415.047181	4241.837167	1699.416992	51.481842
-7415.047181	4241.837167	1698.395508	48.065823
-7415.047181	4241.837167	1697.375000	54.023815
-7415.047181	4241.837167	1696.354492	-68.759537
-7415.047181	4241.837167	1695.333008	175.920761
-7415.047181	4241.837167	1694.311523	-5.339073
-7415.047181	4241.837167	1693.290039	220.520279
-7415.047181	4241.837167	1692.267578	60.365913
-7415.047181	4241.837167	1691.246094	127.108330
-7415.047181	4241.837167	1690.223633	242.917542
-7415.047181	4241.837167	1689.201172	267.515747
-7415.047181	4241.837167	1688.178711	81.763016
-7415.047181	4241.837167	1687.155273	227.880966
-7415.047181	4241.837167	1686.132813	264.144318
-7415.047181	4241.837167	1685.109375	291.042450
-7415.047181	4241.837167	1684.085938	266.550476
-7415.047181	4241.837167	1683.062500	83.294113
-7415.047181	4241.837167	1682.039063	252.603165
-7415.047181	4241.837167	1681.014648	209.446289
-7415.047181	4241.837167	1679.990234	203.638474
-7415.047181	4241.837167	1678.965820	442.801514
-7415.047181	4241.837167	1677.941406	518.584534
-7415.047181	4241.837167	1676.916992	419.421875
-7415.047181	4241.837167	1675.891602	362.256775
-7415.047181	4241.837167	1674.866211	440.323212
-7415.047181	4241.837167	1673.840820	271.287903
-7415.047181	4241.837167	1672.815430	545.082153
-7415.047181	4241.837167	1671.790039	483.255646
-7415.047181	4241.837167	1670.763672	498.315002
-7415.047181	4241.837167	1669.737305	322.381958
-7415.047181	4241.837167	1668.710938	586.610474
-7415.047181	4241.837167	1667.684570	468.918365
-7415.047181	4241.837167	1666.658203	456.009430
-7415.047181	4241.837167	1665.630859	405.857178
-7415.047181	4241.837167	1664.603516	525.570679
-7415.047181	4241.837167	1663.576172	524.261902
-7415.047181	4241.837167	1662.548828	611.329102
-7415.047181	4241.837167	1661.520508	626.260437
-7415.047181	4241.837167	1660.493164	650.482178
-7415.047181	4241.837167	1659.464844	577.050964
-7415.047181	4241.837167	1658.436523	622.166687
-7415.047181	4241.837167	1657.408203	625.430725
-7415.047181	4241.837167	1656.378906	735.544006
-7415.047181	4241.837167	1655.350586	868.838257
-7415.047181	4241.837167	1654.321289	869.696228
-7415.047181	4241.837167	1653.291992	763.737732
-7415.047181	4241.837167	1652.261719	727.447021
-7415.047181	4241.837167	1651.232422	913.975098
-7415.047181	4241.837167	1650.202148	849.801453
-7415.047181	4241.837167	1649.171875	848.283203
-7415.047181	4241.837167	1648.141602	869.950378
-7415.047181	4241.837167	1647.111328	1028.427979
-7415.047181	4241.837167	1646.080078	934.088684
-7415.047181	4241.837167	1645.049805	1094.785889
-7415.047181	4241.837167	1644.018555	1069.981445
-7415.047181	4241.837167	1642.987305	1061.394775
-7415.047181	4241.837167	1641.955078	1203.391968
-7415.047181	4241.837167	1640.923828	1132.215088
-7415.047181	4241.837167	1639.891602	1294.962524
-7415.047181	4241.837167	1638.859375	1272.390137
-7415.047181	4241.837167	1637.827148	1393.350220
-7415.047181	4241.837167	1636.794922	1146.221558
-7415.047181	4241.837167	1635.761719	1324.982422
-7415.047181	4241.837167	1634.729492	1392.605591
-7415.047181	4241.837167	1633.696289	1363.025391
-7415.047181	4241.837167	1632.662109	1307.996460
-7415.047181	4241.837167	1631.628906	1333.914429
-7415.047181	4241.837167	1630.594727	1408.354126
-7415.047181	4241.837167	1629.561523	1314.016968
-7415.047181	4241.837167	1628.527344	1566.355591
-7415.047181	4241.837167	1627.493164	1453.505981
-7415.047181	4241.837167	1626.458008	1705.685547
-7415.047181	4241.837167	1625.423828	1826.105469
-7415.047181	4241.837167	1624.388672	1872.561279
-7415.047181	4241.837167	1623.353516	1669.633057
-7415.047181	4241.837167	1622.318359	1923.825806
-7415.047181	4241.837167	1621.282227	1836.327637
-7415.047181	4241.837167	1620.247070	1905.761963
-7415.047181	4241.837167	1619.210938	1984.378296
-7415.047181	4241.837167	1618.174805	1908.408447
-7415.047181	4241.837167	1617.137695	1894.712280
-7415.047181	4241.837167	1616.101563	1904.070557
-7415.047181	4241.837167	1615.064453	1927.234863
-7415.047181	4241.837167	1614.027344	1839.746338
-7415.047181	4241.837167	1612.990234	1855.972168
-7415.047181	4241.837167	1611.953125	1641.789429
-7415.047181	4241.837167	1610.916016	2097.973389
-7415.047181	4241.837167	1609.877930	1713.370605
-7415.047181	4241.837167	1608.839844	1941.376831
-7415.047181	4241.837167	1607.801758	1918.352295
-7415.047181	4241.837167	1606.763672	1948.259155
-7415.047181	4241.837167	1605.724609	1800.942749
-7415.047181	4241.837167	1604.685547	1826.224854
-7415.047181	4241.837167	1603.646484	1833.080933
-7415.047181	4241.837167	1602.607422	1833.018921
-7415.047181	4241.837167	1601.568359	1927.218628
-7415.047181	4241.837167	1600.528320	1945.496216
-7415.047181	4241.837167	1599.489258	2071.787109
-7415.047181	4241.837167	1598.449219	1972.800293
-7415.047181	4241.837167	1597.408203	2018.581177
-7415.047181	4241.837167	1596.368164	2098.792480
-7415.047181	4241.837167	1595.327148	1999.810791
-7415.047181	4241.837167	1594.287109	1997.302734
-7415.047181	4241.837167	1593.246094	1875.393799
-7415.047181	4241.837167	1592.204102	2024.365112
-7415.047181	4241.837167	1591.163086	1955.255127
-7415.047181	4241.837167	1590.121094	2010.053101
-7415.047181	4241.837167	1589.079102	2161.165039
-7415.047181	4241.837167	1588.037109	2156.243408
-7415.047181	4241.837167	1586.995117	2171.948486
-7415.047181	4241.837167	1585.953125	2132.611572
-7415.047181	4241.837167	1584.910156	1967.199097
-7415.047181	4241.837167	1583.867188	1953.095581
-7415.047181	4241.837167	1582.824219	2202.487793
-7415.047181	4241.837167	1581.781250	1970.688477
-7415.047181	4241.837167	1580.737305	2000.069092
-7415.047181	4241.837167	1579.693359	1864.549683
-7415.047181	4241.837167	1578.649414	1884.759277
-7415.047181	4241.837167	1577.605469	1957.599487
-7415.047181	4241.837167	1576.561523	1886.216919
-7415.047181	4241.837167	1575.516602	1938.407227
-7415.047181	4241.837167	1574.472656	1789.253052
-7415.047181	4241.837167	1573.427734	1756.793213
-7415.047181	4241.837167	1572.381836	1731.189331
-7415.047181	4241.837167	1571.336914	1749.034546
-7415.047181	4241.837167	1570.291016	1673.134766
-7415.047181	4241.837167	1569.246094	1736.675903
-7415.047181	4241.837167	1568.200195	1695.066162
-7415.047181	4241.837167	1567.153320	1600.912476
-7415.047181	4241.837167	1566.107422	1623.285767
-7415.047181	4241.837167	1565.060547	1590.828369
-7415.047181	4241.837167	1564.013672	1606.323730
-7415.047181	4241.837167	1562.966797	1480.273071
-7415.047181	4241.837167	1561.919922	1589.347534
-7415.047181	4241.837167	1560.872070	1556.888794
-7415.047181	4241.837167	1559.825195	1451.437500
-7415.047181	4241.837167	1558.777344	1277.584473
-7415.047181	4241.837167	1557.729492	1512.015381
-7415.047181	4241.837167	1556.680664	1547.973999
-7415.047181	4241.837167	1555.632813	1303.521729
-7415.047181	4241.837167	1554.583984	1289.355713
-7415.047181	4241.837167	1553.535156	1291.143066
-7415.047181	4241.837167	1552.486328	1634.674194
-7415.047181	4241.837167	1551.436523	1454.151245
-7415.047181	4241.837167	1550.387695	1558.381348
-7415.047181	4241.837167	1549.337891	1373.386108
-7415.047181	4241.837167	1548.288086	1359.201782
-7415.047181	4241.837167	1547.238281	1037.752808
-7415.047181	4241.837167	1546.187500	1155.618774
-7415.047181	4241.837167	1545.136719	1209.732666
-7415.047181	4241.837167	1544.086914	1134.173462
-7415.047181	4241.837167	1543.035156	1133.683105
-7415.047181	4241.837167	1541.984375	1356.036255
-7415.047181	4241.837167	1540.933594	1146.359863
-7415.047181	4241.837167	1539.881836	1002.677063
-7415.047181	4241.837167	1538.830078	911.321106
-7415.047181	4241.837167	1537.778320	1072.201538
-7415.047181	4241.837167	1536.725586	1058.102539
-7415.047181	4241.837167	1535.673828	864.600037
-7415.047181	4241.837167	1534.621094	1134.393433
-7415.047181	4241.837167	1533.568359	682.147034
-7415.047181	4241.837167	1532.515625	988.198242
-7415.047181	4241.837167	1531.461914	1121.658325
-7415.047181	4241.837167	1530.409180	946.507385
-7415.047181	4241.837167	1529.355469	941.560364
-7415.047181	4241.837167	1528.301758	632.710938
-7415.047181	4241.837167	1527.247070	609.697388
-7415.047181	4241.837167	1526.193359	693.263489
-7415.047181	4241.837167	1525.138672	488.933197
-7415.047181	4241.837167	1524.083984	522.646973
-7415.047181	4241.837167	1523.029297	359.235565
-7415.047181	4241.837167	1521.974609	542.494385
-7415.047181	4241.837167	1520.918945	687.183350
-7415.047181	4241.837167	1519.863281	514.808350
-7415.047181	4241.837167	1518.807617	686.639526
-7415.047181	4241.837167	1517.751953	258.580750
-7415.047181	4241.837167	1516.696289	373.844574
-7415.047181	4241.837167	1515.639648	312.586487
-7415.047181	4241.837167	1514.583008	140.521317
-7415.047181	4241.837167	1513.526367	230.901642
-7415.047181	4241.837167	1512.469727	429.805206
-7415.047181	4241.837167	1511.412109	348.296783
-7415.047181	4241.837167	1510.355469	368.562134
-7415.047181	4241.837167	1509.297852	257.754639
-7415.047181	4241.837167	1508.240234	257.726807
-7415.047181	4241.837167	1507.181641	180.904785
-7415.047181	4241.837167	1506.124023	106.398048
-7415.047181	4241.837167	1505.065430	92.906059
-7415.047181	4241.837167	1504.006836	147.172821
-7415.047181	4241.837167	1502.948242	172.095428
-7415.047181	4241.837167	1501.888672	113.524086
-7415.047181	4241.837167	1500.830078	88.851189
-7415.047181	4241.837167	1499.770508	68.717888
-7415.047181	4241.837167	1498.710938	-84.454193
-7415.047181	4241.837167	1497.650391	-43.614578
-7415.047181	4241.837167	1496.590820	-77.159126
-7415.047181	4241.837167	1495.530273	44.865047
-7415.047181	4241.837167	1494.469727	153.347244
-7415.047181	4241.837167	1493.409180	-1.813425
-7415.047181	4241.837167	1492.348633	255.375870
-7415.047181	4241.837167	1491.287109	111.572258
-7415.047181	4241.837167	1490.225586	111.976456
-7415.047181	4241.837167	1489.164063	65.131119
-7415.047181	4241.837167	1488.102539	153.396301
-7415.047181	4241.837167	1487.041016	-46.409950
-7415.047181	4241.837167	1485.978516	-68.352020
-7415.047181	4241.837167	1484.916016	78.634918
-7415.047181	4241.837167	1483.853516	99.327904
-7415.047181	4241.837167	1482.791016	-30.436438
-7415.047181	4241.837167	1481.727539	6.266908
-7415.047181	4241.837167	1480.664063	-55.881153
-7415.047181	4241.837167	1479.600586	203.405212
-7415.047181	4241.837167	1478.537109	116.613022
-7415.047181	4241.837167	1477.473633	86.116982
-7415.047181	4241.837167	1476.409180	-9.395001
-7415.047181	4241.837167	1475.344727	16.304678
-7415.047181	4241.837167	1474.280273	158.804596
-7415.047181	4241.837167	1473.215820	164.393524
-7415.047181	4241.837167	1472.151367	152.158066
-7415.047181	4241.837167	1471.085938	252.099869
-7415.047181	4241.837167	1470.020508	89.649406
-7415.047181	4241.837167	1468.955078	248.021271
-7415.047181	4241.837167	1467.888672	269.620483
-7415.047181	4241.837167	1466.823242	235.139069
-7415.047181	4241.837167	1465.756836	91.117928
-7415.047181	4241.837167	1464.690430	-70.709892
-7415.047181	4241.837167	1463.624023	208.577179
-7415.047181	4241.837167	1462.556641	51.587563
-7415.047181	4241.837167	1461.490234	140.158295
-7415.047181	4241.837167	1460.422852	162.633484
-7415.047181	4241.837167	1459.355469	158.296738
-7415.047181	4241.837167	1458.287109	398.301575
-7415.047181	4241.837167	1457.219727	237.644760
-7415.047181	4241.837167	1456.151367	273.287048
-7415.047181	4241.837167	1455.083008	172.925888
-7415.047181	4241.837167	1454.014648	241.196701
-7415.047181	4241.837167	1452.945313	132.962265
-7415.047181	4241.837167	1451.876953	438.152435
-7415.047181	4241.837167	1450.807617	411.970673
-7415.047181	4241.837167	1449.738281	492.181488
-7415.047181	4241.837167	1448.668945	317.654755
-7415.047181	4241.837167	1447.598633	433.855957
-7415.047181	4241.837167	1446.528320	449.770264
-7415.047181	4241.837167	1445.458008	201.621948
-7415.047181	4241.837167	1444.387695	62.276905
-7415.047181	4241.837167	1443.317383	329.935974
-7415.047181	4241.837167	1442.246094	351.873627
-7415.047181	4241.837167	1441.174805	468.940857
-7415.047181	4241.837167	1440.103516	309.846313
-7415.047181	4241.837167	1439.032227	191.377792
-7415.047181	4241.837167	1437.960938	63.566162
-7415.047181	4241.837167	1436.888672	254.096359
-7415.047181	4241.837167	1435.816406	355.639374
-7415.047181	4241.837167	1434.744141	56.257347
-7415.047181	4241.837167	1433.670898	151.014297
-7415.047181	4241.837167	1432.598633	-16.232420
-7415.047181	4241.837167	1431.525391	-101.828033
-7415.047181	4241.837167	1430.452148	52.037750
-7415.047181	4241.837167	1429.378906	-48.758461
-7415.047181	4241.837167	1428.304688	47.171856
-7415.047181	4241.837167	1427.231445	6.368004
-7415.047181	4241.837167	1426.157227	-48.518509
-7415.047181	4241.837167	1425.083008	-95.490234
-7415.047181	4241.837167	1424.007813	-10.671072
-7415.047181	4241.837167	1422.933594	-88.115059
-7415.047181	4241.837167	1421.858398	-225.332275
-7415.047181	4241.837167	1420.783203	34.166653
-7415.047181	4241.837167	1419.708008	105.787560
-7415.047181	4241.837167	1418.631836	-105.483742
-7415.047181	4241.837167	1417.555664	-175.717697
-7415.047181	4241.837167	1416.479492	60.379215
-7415.047181	4241.837167	1415.403320	-114.240280
-7415.047181	4241.837167	1414.327148	-94.866646
-7415.047181	4241.837167	1413.250000	-129.880920
-7415.047181	4241.837167	1412.173828	112.058830
-7415.047181	4241.837167	1411.096680	109.636330
-7415.047181	4241.837167	1410.018555	13.741981
-7415.047181	4241.837167	1408.941406	-53.769081
-7415.047181	4241.837167	1407.863281	-113.972458
-7415.047181	4241.837167	1406.785156	-200.496017
-7415.047181	4241.837167	1405.707031	-64.490639
-7415.047181	4241.837167	1404.628906	-3.151114
-7415.047181	4241.837167	1403.549805	-101.098061
-7415.047181	4241.837167	1402.470703	-141.669678
-7415.047181	4241.837167	1401.391602	-186.613495
-7415.047181	4241.837167	1400.312500	-111.540375
-7415.047181	4241.837167	1399.233398	-44.878551
-7415.047181	4241.837167	1398.153320	-146.333237
-7415.047181	4241.837167	1397.073242	84.238419
-7415.047181	4241.837167	1395.993164	-121.135803
-7415.047181	4241.837167	1394.913086	-15.723999
-7415.047181	4241.837167	1393.832031	-32.020134
-7415.047181	4241.837167	1392.750977	-189.757706
-7415.047181	4241.837167	1391.669922	-176.260513
-7415.047181	4241.837167	1390.588867	272.967010
-7415.047181	4241.837167	1389.506836	-253.698715
-7415.047181	4241.837167	1388.425781	190.990753
-7415.047181	4241.837167	1387.343750	119.912003
-7415.047181	4241.837167	1386.261719	153.250900
-7415.047181	4241.837167	1385.178711	-8.806183
-7415.047181	4241.837167	1384.096680	166.779434
-7415.047181	4241.837167	1383.013672	159.641861
-7415.047181	4241.837167	1381.930664	29.368942
-7415.047181	4241.837167	1380.846680	21.235229
-7415.047181	4241.837167	1379.763672	164.988663
-7415.047181	4241.837167	1378.679688	183.389999
-7415.047181	4241.837167	1377.595703	107.839180
-7415.047181	4241.837167	1376.511719	179.123657
-7415.047181	4241.837167	1375.427734	153.667572
-7415.047181	4241.837167	1374.342773	40.082897
-7415.047181	4241.837167	1373.257813	271.351227
-7415.047181	4241.837167	1372.172852	24.817581
-7415.047181	4241.837167	1371.087891	-31.614424
-7415.047181	4241.837167	1370.001953	277.274933
-7415.047181	4241.837167	1368.916992	206.544174
-7415.047181	4241.837167	1367.831055	-40.072506
-7415.047181	4241.837167	1366.744141	54.663673
-7415.047181	4241.837167	1365.658203	64.186691
-7415.047181	4241.837167	1364.571289	154.417725
-7415.047181	4241.837167	1363.484375	-66.796280
-7415.047181	4241.837167	1362.397461	83.320267
-7415.047181	4241.837167	1361.310547	204.801773
-7415.047181	4241.837167	1360.222656	248.908722
-7415.047181	4241.837167	1359.135742	154.079803
-7415.047181	4241.837167	1358.047852	81.643494
-7415.047181	4241.837167	1356.958984	-146.441727
-7415.047181	4241.837167	1355.871094	85.739754
-7415.047181	4241.837167	1354.782227	185.589233
-7415.047181	4241.837167	1353.693359	318.219330
-7415.047181	4241.837167	1352.604492	197.592102
-7415.047181	4241.837167	1351.515625	112.078751
-7415.047181	4241.837167	1350.425781	57.123184
-7415.047181	4241.837167	1349.335938	96.328804
-7415.047181	4241.837167	1348.246094	131.369537
-7415.047181	4241.837167	1347.156250	200.889053
-7415.047181	4241.837167	1346.066406	107.899124
-7415.047181	4241.837167	1344.975586	120.971039
-7415.047181	4241.837167	1343.884766	30.782869
-7415.047181	4241.837167	1342.793945	208.216522
-7415.047181	4241.837167	1341.702148	398.477295
-7415.047181	4241.837167	1340.611328	80.485847
-7415.047181	4241.837167	1339.519531	108.973152
-7415.047181	4241.837167	1338.427734	311.117737
-7415.047181	4241.837167	1337.334961	351.466095
-7415.047181	4241.837167	1336.243164	430.293549
-7415.047181	4241.837167	1335.150391	386.774139
-7415.047181	4241.837167	1334.057617	227.912216
-7415.047181	4241.837167	1332.964844	251.480164
-7415.047181	4241.837167	1331.871094	92.562981
-7415.047181	4241.837167	1330.778320	189.576599
-7415.047181	4241.837167	1329.684570	280.991882
-7415.047181	4241.837167	1328.590820	433.633911
-7415.047181	4241.837167	1327.496094	186.687622
-7415.047181	4241.837167	1326.402344	264.923584
-7415.047181	4241.837167	1325.307617	230.708908
-7415.047181	4241.837167	1324.212891	151.162201
-7415.047181	4241.837167	1323.117188	-176.251007
-7415.047181	4241.837167	1322.022461	141.128738
-7415.047181	4241.837167	1320.926758	54.221012
-7415.047181	4241.837167	1319.831055	341.411560
-7415.047181	4241.837167	1318.735352	185.448273
-7415.047181	4241.837167	1317.638672	260.200439
-7415.047181	4241.837167	1316.542969	168.376343
-7415.047181	4241.837167	1315.446289	328.526306
-7415.047181	4241.837167	1314.349609	277.033600
-7415.047181	4241.837167	1313.251953	107.178032
-7415.047181	4241.837167	1312.155273	132.888733
-7415.047181	4241.837167	1311.057617	340.685547
-7415.047181	4241.837167	1309.959961	119.828232
-7415.047181	4241.837167	1308.862305	304.345886
-7415.047181	4241.837167	1307.763672	215.438599
-7415.047181	4241.837167	1306.665039	440.746735
-7415.047181	4241.837167	1305.566406	172.176300
-7415.047181	4241.837167	1304.467773	317.813904
-7415.047181	4241.837167	1303.369141	137.578171
-7415.047181	4241.837167	1302.269531	169.034897
-7415.047181	4241.837167	1301.169922	281.850281
-7415.047181	4241.837167	1300.070313	246.287704
-7415.047181	4241.837167	1298.970703	193.589951
-7415.047181	4241.837167	1297.870117	291.382721
-7415.047181	4241.837167	1296.769531	229.556396
-7415.047181	4241.837167	1295.668945	324.486633
-7415.047181	4241.837167	1294.568359	459.693542
-7415.047181	4241.837167	1293.466797	313.438843
-7415.047181	4241.837167	1292.366211	307.124756
-7415.047181	4241.837167	1291.264648	119.260590
-7415.047181	4241.837167	1290.162109	106.483856
-7415.047181	4241.837167	1289.060547	60.713810
-7415.047181	4241.837167	1287.958008	11.482680
-7415.047181	4241.837167	1286.855469	207.233704
-7415.047181	4241.837167	1285.752930	160.002548
-7415.047181	4241.837167	1284.650391	99.947945
-7415.047181	4241.837167	1283.546875	30.947559
-7415.047181	4241.837167	1282.444336	204.073837
-7415.047181	4241.837167	1281.339844	167.923813
-7415.047181	4241.837167	1280.236328	145.700256
-7415.047181	4241.837167	1279.132813	134.805283
-7415.047181	4241.837167	1278.028320	203.256577
-7415.047181	4241.837167	1276.923828	119.233833
-7415.047181	4241.837167	1275.819336	101.239426
-7415.047181	4241.837167	1274.713867	29.213148
-7415.047181	4241.837167	1273.608398	232.556091
-7415.047181	4241.837167	1272.503906	105.581093
-7415.047181	4241.837167	1271.397461	148.063171
-7415.047181	4241.837167	1270.291992	-39.765038
-7415.047181	4241.837167	1269.185547	93.241737
-7415.047181	4241.837167	1268.080078	130.624390
-7415.047181	4241.837167	1266.972656	183.892227
-7415.047181	4241.837167	1265.866211	-54.644978
-7415.047181	4241.837167	1264.759766	61.868004
-7415.047181	4241.837167	1263.652344	-16.490637
-7415.047181	4241.837167	1262.544922	-8.611731
-7415.047181	4241.837167	1261.436523	48.781288
-7415.047181	4241.837167	1260.329102	8.985957
-7415.047181	4241.837167	1259.220703	-83.296432
-7415.047181	4241.837167	1258.112305	52.183582
-7415.047181	4241.837167	1257.003906	27.650902
-7415.047181	4241.837167	1255.895508	-20.964495
-7415.047181	4241.837167	1254.786133	-67.976471
-7415.047181	4241.837167	1253.676758	-5.227695
-7415.047181	4241.837167	1252.567383	-136.796997
-7415.047181	4241.837167	1251.458008	-46.688049
-7415.047181	4241.837167	1250.347656	108.912514
-7415.047181	4241.837167	1249.237305	-99.277756
-7415.047181	4241.837167	1248.126953	11.737462
-7415.047181	4241.837167	1247.016602	73.784569
-7415.047181	4241.837167	1245.905273	-27.395109
-7415.047181	4241.837167	1244.793945	-118.001320
-7415.047181	4241.837167	1243.682617	-123.252617
-7415.047181	4241.837167	1242.571289	-82.078484
-7415.047181	4241.837167	1241.459961	-91.142792
-7415.047181	4241.837167	1240.347656	-22.265465
-7415.047181	4241.837167	1239.235352	41.342651
-7415.047181	4241.837167	1238.123047	55.191490
-7415.047181	4241.837167	1237.009766	-122.082642
-7415.047181	4241.837167	1235.897461	42.888802
-7415.047181	4241.837167	1234.784180	4.031644
-7415.047181	4241.837167	1233.670898	24.673742
-7415.047181	4241.837167	1232.556641	20.204554
-7415.047181	4241.837167	1231.443359	10.508707
-7415.047181	4241.837167	1230.329102	-80.329315
-7415.047181	4241.837167	1229.214844	165.309097
-7415.047181	4241.837167	1228.099609	51.345837
-7415.047181	4241.837167	1226.985352	96.696281
-7415.047181	4241.837167	1225.870117	50.944382
-7415.047181	4241.837167	1224.754883	108.448715
-7415.047181	4241.837167	1223.639648	133.359772
-7415.047181	4241.837167	1222.523438	112.217827
-7415.047181	4241.837167	1221.408203	76.378143
-7415.047181	4241.837167	1220.291992	231.695663
-7415.047181	4241.837167	1219.174805	107.825890
-7415.047181	4241.837167	1218.058594	263.792694
-7415.047181	4241.837167	1216.941406	188.306763
-7415.047181	4241.837167	1215.824219	139.636398
-7415.047181	4241.837167	1214.707031	208.203522
-7415.047181	4241.837167	1213.589844	140.024750
-7415.047181	4241.837167	1212.471680	160.627106
-7415.047181	4241.837167	1211.353516	175.484695
-7415.047181	4241.837167	1210.235352	195.186417
-7415.047181	4241.837167	1209.117188	306.083862
-7415.047181	4241.837167	1207.998047	165.910233
-7415.047181	4241.837167	1206.878906	364.015442
-7415.047181	4241.837167	1205.759766	367.294006
-7415.047181	4241.837167	1204.640625	158.590668
-7415.047181	4241.837167	1203.520508	218.330185
-7415.047181	4241.837167	1202.401367	206.825180
-7415.047181	4241.837167	1201.281250	454.542389
-7415.047181	4241.837167	1200.160156	211.608856
-7415.047181	4241.837167	1199.040039	169.130905
-7415.047181	4241.837167	1197.918945	117.517899
-7415.047181	4241.837167	1196.797852	239.307800
-7415.047181	4241.837167	1195.676758	147.312103
-7415.047181	4241.837167	1194.555664	277.270050
-7415.047181	4241.837167	1193.433594	63.600830
-7415.047181	4241.837167	1192.311523	272.802216
-7415.047181	4241.837167	1191.189453	241.311722
-7415.047181	4241.837167	1190.066406	109.055382
-7415.047181	4241.837167	1188.944336	118.190720
-7415.047181	4241.837167	1187.821289	181.610001
-7415.047181	4241.837167	1186.698242	192.622406
-7415.047181	4241.837167	1185.574219	167.047668
-7415.047181	4241.837167	1184.451172	110.701279
-7415.047181	4241.837167	1183.327148	82.232529
-7415.047181	4241.837167	1182.203125	75.992477
-7415.047181	4241.837167	1181.078125	136.904465
-7415.047181	4241.837167	1179.954102	206.914627
-7415.047181	4241.837167	1178.829102	53.836514
-7415.047181	4241.837167	1177.704102	65.733002
-7415.047181	4241.837167	1176.579102	150.435074
-7415.047181	4241.837167	1175.453125	87.373962
-7415.047181	4241.837167	1174.327148	27.664248
-7415.047181	4241.837167	1173.201172	111.325386
-7415.047181	4241.837167	1172.075195	167.515518
-7415.047181	4241.837167	1170.949219	120.546097
-7415.047181	4241.837167	1169.822266	56.153118
-7415.047181	4241.837167	1168.695313	29.115122
-7415.047181	4241.837167	1167.568359	96.453529
-7415.047181	4241.837167	1166.440430	-68.076103
-7415.047181	4241.837167	1165.313477	-18.726292
-7415.047181	4241.837167	1164.185547	-82.278824
-7415.047181	4241.837167	1163.057617	9.997924
-7415.047181	4241.837167	1161.928711	-19.087744
-7415.047181	4241.837167	1160.800781	-69.118462
-7415.047181	4241.837167	1159.671875	-98.771477
-7415.047181	4241.837167	1158.541992	-51.282196
-7415.047181	4241.837167	1157.413086	-78.399300
-7415.047181	4241.837167	1156.283203	-138.364456
-7415.047181	4241.837167	1155.154297	-61.382423
-7415.047181	4241.837167	1154.023438	-60.490963
-7415.047181	4241.837167	1152.893555	-80.212959
-7415.047181	4241.837167	1151.763672	-190.718613
-7415.047181	4241.837167	1150.632813	-96.514023
-7415.047181	4241.837167	1149.501953	-94.832458
-7415.047181	4241.837167	1148.370117	-48.163437
-7415.047181	4241.837167	1147.239258	-136.383530
-7415.047181	4241.837167	1146.107422	-94.358475
-7415.047181	4241.837167	1144.975586	-20.396685
-7415.047181	4241.837167	1143.843750	-26.671055
-7415.047181	4241.837167	1142.710938	-149.636963
-7415.047181	4241.837167	1141.578125	-100.630142
-7415.047181	4241.837167	1140.445313	-65.561768
-7415.047181	4241.837167	1139.312500	-124.790268
-7415.047181	4241.837167	1138.178711	-154.606018
-7415.047181	4241.837167	1137.045898	-223.776016
-7415.047181	4241.837167	1135.912109	-84.522598
-7415.047181	4241.837167	1134.777344	-128.559692
-7415.047181	4241.837167	1133.643555	-54.631756
-7415.047181	4241.837167	1132.508789	-167.490494
-7415.047181	4241.837167	1131.374023	-124.425591
-7415.047181	4241.837167	1130.239258	-117.709526
-7415.047181	4241.837167	1129.104492	-34.336437
-7415.047181	4241.837167	1127.968750	-26.096823
-7415.047181	4241.837167	1126.833008	-50.538105
-7415.047181	4241.837167	1125.697266	-132.228638
-7415.047181	4241.837167	1124.560547	-100.340797
-7415.047181	4241.837167	1123.424805	-71.990730
-7415.047181	4241.837167	1122.288086	80.519737
-7415.047181	4241.837167	1121.151367	-17.460215
-7415.047181	4241.837167	1120.013672	-15.790546
-7415.047181	4241.837167	1118.876953	-38.923111
-7415.047181	4241.837167	1117.739258	-21.561304
-7415.047181	4241.837167	1116.601563	-91.797218
-7415.047181	4241.837167	1115.462891	-127.980171
-7415.047181	4241.837167	1114.324219	-130.067429
-7415.047181	4241.837167	1113.186523	-8.635261
-7415.047181	4241.837167	1112.046875	-28.356922
-7415.047181	4241.837167	1110.908203	-20.456474
-7415.047181	4241.837167	1109.769531	94.439384
-7415.047181	4241.837167	1108.629883	39.433323
-7415.047181	4241.837167	1107.490234	-13.749084
-7415.047181	4241.837167	1106.349609	32.545551
-7415.047181	4241.837167	1105.209961	-25.759773
-7415.047181	4241.837167	1104.069336	1.164048
-7415.047181	4241.837167	1102.928711	-63.970913
-7415.047181	4241.837167	1101.787109	133.538406
-7415.047181	4241.837167	1100.646484	45.101673
-7415.047181	4241.837167	1099.504883	-65.298004
-7415.047181	4241.837167	1098.363281	-19.753059
-7415.047181	4241.837167	1097.221680	6.902681
-7415.047181	4241.837167	1096.079102	0.098677
-7415.047181	4241.837167	1094.936523	76.100052
-7415.047181	4241.837167	1093.793945	118.957771
-7415.047181	4241.837167	1092.651367	32.143692
-7415.047181	4241.837167	1091.507813	23.984592
-7415.047181	4241.837167	1090.364258	5.088572
-7415.047181	4241.837167	1089.220703	97.755638
-7415.047181	4241.837167	1088.077148	99.695984
-7415.047181	4241.837167	1086.933594	128.462555
-7415.047181	4241.837167	1085.789063	70.267662
-7415.047181	4241.837167	1084.644531	56.541962
-7415.047181	4241.837167	1083.499023	33.131466
-7415.047181	4241.837167	1082.354492	12.426867
-7415.047181	4241.837167	1081.208984	19.618952
-7415.047181	4241.837167	1080.063477	1.787999
-7415.047181	4241.837167	1078.917969	83.037804
-7415.047181	4241.837167	1077.771484	153.171219
-7415.047181	4241.837167	1076.625977	244.585327
-7415.047181	4241.837167	1075.479492	154.963623
-7415.047181	4241.837167	1074.332031	149.652939
-7415.047181	4241.837167	1073.185547	102.914986
-7415.047181	4241.837167	1072.038086	158.814774
-7415.047181	4241.837167	1070.890625	182.006302
-7415.047181	4241.837167	1069.743164	130.105179
-7415.047181	4241.837167	1068.594727	77.490044
-7415.047181	4241.837167	1067.447266	84.788437
-7415.047181	4241.837167	1066.298828	106.223061
-7415.047181	4241.837167	1065.149414	24.922070
-7415.047181	4241.837167	1064.000977	68.968452
-7415.047181	4241.837167	1062.851563	78.733040
-7415.047181	4241.837167	1061.702148	136.668213
-7415.047181	4241.837167	1060.552734	184.701172
-7415.047181	4241.837167	1059.402344	88.508972
-7415.047181	4241.837167	1058.252930	-33.583515
-7415.047181	4241.837167	1057.102539	-65.963837
-7415.047181	4241.837167	1055.951172	17.541136
-7415.047181	4241.837167	1054.800781	125.774246
-7415.047181	4241.837167	1053.649414	128.583923
-7415.047181	4241.837167	1052.498047	71.585236
-7415.047181	4241.837167	1051.346680	93.354874
-7415.047181	4241.837167	1050.194336	-74.294769
-7415.047181	4241.837167	1049.042969	46.693684
-7415.047181	4241.837167	1047.890625	-81.234253
-7415.047181	4241.837167	1046.738281	9.548573
-7415.047181	4241.837167	1045.584961	-12.729648
-7415.047181	4241.837167	1044.431641	104.853317
-7415.047181	4241.837167	1043.278320	140.884964
-7415.047181	4241.837167	1042.125000	-112.443695
-7415.047181	4241.837167	1040.971680	63.640427
-7415.047181	4241.837167	1039.817383	23.604473
-7415.047181	4241.837167	1038.663086	172.033173
-7415.047181	4241.837167	1037.508789	157.217209
-7415.047181	4241.837167	1036.353516	57.289585
-7415.047181	4241.837167	1035.198242	1.374317
-7415.047181	4241.837167	1034.042969	49.195709
-7415.047181	4241.837167	1032.887695	27.085499
-7415.047181	4241.837167	1031.732422	137.967224
-7415.047181	4241.837167	1030.576172	166.183563
-7415.047181	4241.837167	1029.419922	167.324753
-7415.047181	4241.837167	1028.263672	154.781174
-7415.047181	4241.837167	1027.106445	80.022263
-7415.047181	4241.837167	1025.949219	38.732262
-7415.047181	4241.837167	1024.792969	51.451164
-7415.047181	4241.837167	1023.634766	184.257324
-7415.047181	4241.837167	1022.477539	-27.366482
-7415.047181	4241.837167	1021.319336	72.924675
-7415.047181	4241.837167	1020.161133	103.486336
-7415.047181	4241.837167	1019.002930	123.570305
-7415.047181	4241.837167	1017.843750	36.576191
-7415.047181	4241.837167	1016.684570	151.188904
-7415.047181	4241.837167	1015.525391	-19.669828
-7415.047181	4241.837167	1014.366211	121.202034
-7415.047181	4241.837167	1013.207031	40.647148
-7415.047181	4241.837167	1012.046875	151.909561
-7415.047181	4241.837167	1010.886719	87.820107
-7415.047181	4241.837167	1009.726563	21.170675
-7415.047181	4241.837167	1008.565430	61.923893
-7415.047181	4241.837167	1007.404297	-23.246397
-7415.047181	4241.837167	1006.243164	111.966400
-7415.047181	4241.837167	1005.082031	249.029037
-7415.047181	4241.837167	1003.920898	81.656364
-7415.047181	4241.837167	1002.758789	70.424919
-7415.047181	4241.837167	1001.596680	38.828304
-7415.047181	4241.837167	1000.433594	214.702728
-7415.047181	4241.837167	999.271484	176.307388
-7415.047181	4241.837167	998.108398	74.122246
-7415.047181	4241.837167	996.945313	-50.377312
-7415.047181	4241.837167	995.782227	-37.342602
-7415.047181	4241.837167	994.618164	-6.196527
-7415.047181	4241.837167	993.454102	-32.726147
-7415.047181	4241.837167	992.290039	-13.921611
-7415.047181	4241.837167	991.125977	-77.358994
-7415.047181	4241.837167	989.960938	-14.472181
-7415.047181	4241.837167	988.796875	31.910576
-7415.047181	4241.837167	987.630859	-35.198345
-7415.047181	4241.837167	986.465820	30.079573
-7415.047181	4241.837167	985.300781	78.114128
-7415.047181	4241.837167	984.134766	-26.837481
-7415.047181	4241.837167	982.968750	74.511681
-7415.047181	4241.837167	981.801758	79.154053
-7415.047181	4241.837167	980.635742	29.250740
-7415.047181	4241.837167	979.468750	-113.753647
-7415.047181	4241.837167	978.301758	-20.606028
-7415.047181	4241.837167	977.133789	-18.159922
-7415.047181	4241.837167	975.966797	30.690739
-7415.047181	4241.837167	974.798828	45.468151
-7415.047181	4241.837167	973.630859	-14.918032
-7415.047181	4241.837167	972.461914	34.812225
-7415.047181	4241.837167	971.293945	46.858360
-7415.047181	4241.837167	970.125000	40.843616
-7415.047181	4241.837167	968.956055	8.247301
-7415.047181	4241.837167	967.786133	-32.089272
-7415.047181	4241.837167	966.617188	-53.453362
-7415.047181	4241.837167	965.447266	-20.515224
-7415.047181	4241.837167	964.276367	-0.884109
-7415.047181	4241.837167	963.106445	-53.734535
-7415.047181	4241.837167	961.935547	-27.430492
-7415.047181	4241.837167	960.764648	-3.012637
-7415.047181	4241.837167	959.593750	-7.052866
-7415.047181	4241.837167	958.422852	-23.573267
-7415.047181	4241.837167	957.250977	-72.693985
-7415.047181	4241.837167	956.079102	-90.461227
-7415.047181	4241.837167	954.907227	-3.658769
-7415.047181	4241.837167	953.734375	5.688771
-7415.047181	4241.837167	952.562500	-17.548864
-7415.047181	4241.837167	951.389648	-95.060043
-7415.047181	4241.837167	950.215820	-17.321085
-7415.047181	4241.837167	949.042969	65.405350
-7415.047181	4241.837167	947.869141	-30.892700
-7415.047181	4241.837167	946.695313	-5.211049
-7415.047181	4241.837167	945.521484	2.887298
-7415.047181	4241.837167	944.346680	51.002270
-7415.047181	4241.837167	943.172852	-10.464041
-7415.047181	4241.837167	941.998047	19.148643
-7415.047181	4241.837167	940.822266	63.123833
-7415.047181	4241.837167	939.647461	4.154057
-7415.047181	4241.837167	938.471680	-131.252609
-7415.047181	4241.837167	937.295898	-75.130966
-7415.047181	4241.837167	936.119141	-18.899517
-7415.047181	4241.837167	934.943359	-29.785631
-7415.047181	4241.837167	933.766602	-23.842731
-7415.047181	4241.837167	932.589844	-31.775255
-7415.047181	4241.837167	931.413086	-48.077770
-7415.047181	4241.837167	930.235352	47.997452
-7415.047181	4241.837167	929.057617	-62.912033
-7415.047181	4241.837167	927.879883	6.700200
-7415.047181	4241.837167	926.702148	-32.069080
-7415.047181	4241.837167	925.523438	-8.415708
-7415.047181	4241.837167	924.344727	-102.753143
-7415.047181	4241.837167	923.166016	112.251228
-7415.047181	4241.837167	921.987305	37.256222
-7415.047181	4241.837167	920.807617	-43.310673
-7415.047181	4241.837167	919.627930	-39.052608
-7415.047181	4241.837167	919.497070	-104.012436
-7415.047181	4241.837167	918.331055	-16.942677
-7415.047181	4241.837167	917.165039	-32.529572
-7415.047181	4241.837167	915.999023	15.569764
-7415.047181	4241.837167	914.833008	63.588848
-7415.047181	4241.837167	913.666016	64.439728
-7415.047181	4241.837167	912.499023	69.384819
-7415.047181	4241.837167	911.332031	-55.876537
-7415.047181	4241.837167	910.165039	63.866730
-7415.047181	4241.837167	908.997070	-87.749878
-7415.047181	4241.837167	907.830078	-55.334412
-7415.047181	4241.837167	906.661133	21.286327
-7415.047181	4241.837167	905.493164	53.557594
-7415.047181	4241.837167	904.325195	20.766710
-7415.047181	4241.837167	903.156250	153.845352
-7415.047181	4241.837167	901.987305	15.888907
-7415.047181	4241.837167	900.818359	137.750565
-7415.047181	4241.837167	899.648438	50.874077
-7415.047181	4241.837167	898.478516	95.216805
-7415.047181	4241.837167	897.308594	62.145596
-7415.047181	4241.837167	896.138672	111.889633
-7415.047181	4241.837167	894.968750	272.009613
-7415.047181	4241.837167	893.797852	162.858292
-7415.047181	4241.837167	892.626953	133.743332
-7415.047181	4241.837167	891.456055	-19.585098
-7415.047181	4241.837167	890.284180	42.299347
-7415.047181	4241.837167	889.113281	17.221218
-7415.047181	4241.837167	887.941406	-10.648650
-7415.047181	4241.837167	886.768555	1.429055
-7415.047181	4241.837167	885.596680	-127.135429
-7415.047181	4241.837167	884.423828	0.627336
-7415.047181	4241.837167	883.250977	169.627411
-7415.047181	4241.837167	882.078125	-54.069618
-7415.047181	4241.837167	880.905273	-75.268250
-7415.047181	4241.837167	879.731445	-57.944321
-7415.047181	4241.837167	878.557617	83.229355
-7415.047181	4241.837167	877.383789	-35.828590
-7415.047181	4241.837167	876.209961	47.405945
-7415.047181	4241.837167	875.035156	-20.769094
-7415.047181	4241.837167	873.860352	66.478500
-7415.047181	4241.837167	872.685547	90.390610
-7415.047181	4241.837167	871.510742	-21.865118
-7415.047181	4241.837167	870.334961	-48.880043
-7415.047181	4241.837167	869.159180	18.912561
-7415.047181	4241.837167	867.983398	52.288246
-7415.047181	4241.837167	866.807617	5.933697
-7415.047181	4241.837167	865.630859	-96.750862
-7415.047181	4241.837167	864.454102	-64.847038
-7415.047181	4241.837167	863.277344	-37.108582
-7415.047181	4241.837167	862.100586	-150.802429
-7415.047181	4241.837167	860.922852	-49.010418
-7415.047181	4241.837167	859.745117	-2.177325
-7415.047181	4241.837167	858.567383	-13.011993
-7415.047181	4241.837167	857.389648	-59.533817
-7415.047181	4241.837167	856.210938	-126.634796
-7415.047181	4241.837167	855.032227	-15.504742
-7415.047181	4241.837167	853.853516	33.868191
-7415.047181	4241.837167	852.674805	11.928956
-7415.047181	4241.837167	851.495117	44.779579
-7415.047181	4241.837167	850.315430	-18.301897
-7415.047181	4241.837167	849.135742	39.141186
-7415.047181	4241.837167	847.956055	54.086472
-7415.047181	4241.837167	846.775391	-55.581886
-7415.047181	4241.837167	845.595703	20.921799
-7415.047181	4241.837167	844.415039	-35.372097
-7415.047181	4241.837167	843.233398	-45.146156
-7415.047181	4241.837167	842.052734	-0.222992
-7415.047181	4241.837167	840.871094	52.866123
-7415.047181	4241.837167	839.689453	79.931595
-7415.047181	4241.837167	838.506836	-61.184078
-7415.047181	4241.837167	837.325195	190.006653
-7415.047181	4241.837167	836.142578	113.111534
-7415.047181	4241.837167	834.959961	-63.506748
-7415.047181	4241.837167	833.777344	116.441895
-7415.047181	4241.837167	832.593750	80.522980
-7415.047181	4241.837167	831.410156	22.754993
-7415.047181	4241.837167	830.226563	89.217560
-7415.047181	4241.837167	829.042969	24.612341
-7415.047181	4241.837167	827.858398	104.659554
-7415.047181	4241.837167	826.673828	214.671692
-7415.047181	4241.837167	825.489258	79.106232
-7415.047181	4241.837167	824.304688	183.592087
-7415.047181	4241.837167	823.120117	121.683434
-7415.047181	4241.837167	821.934570	215.184357
-7415.047181	4241.837167	820.749023	136.912735
-7415.047181	4241.837167	819.562500	76.374306
-7415.047181	4241.837167	818.376953	77.150208
-7415.047181	4241.837167	817.190430	106.516090
-7415.047181	4241.837167	816.003906	-9.847384
-7415.047181	4241.837167	814.817383	67.151016
-7415.047181	4241.837167	813.629883	-8.343910
-7415.047181	4241.837167	812.442383	12.804565
-7415.047181	4241.837167	811.254883	-6.885108
-7415.047181	4241.837167	810.067383	-14.333460
-7415.047181	4241.837167	808.878906	72.054916
-7415.047181	4241.837167	807.690430	49.616467
-7415.047181	4241.837167	806.501953	-73.423370
-7415.047181	4241.837167	805.313477	79.496277
-7415.047181	4241.837167	804.124023	-20.414492
-7415.047181	4241.837167	802.934570	-4.807532
-7415.047181	4241.837167	801.745117	-46.266521
-7415.047181	4241.837167	800.555664	-72.777008
-7415.047181	4241.837167	799.365234	6.624449
-7415.047181	4241.837167	798.175781	-173.300201
-7415.047181	4241.837167	796.985352	-80.352440
-7415.047181	4241.837167	795.793945	5.766339
-7415.047181	4241.837167	794.603516	-39.755177
-7415.047181	4241.837167	793.412109	-101.540283
-7415.047181	4241.837167	792.220703	-62.953758
-7415.047181	4241.837167	791.028320	42.047325
-7415.047181	4241.837167	789.836914	23.643852
-7415.047181	4241.837167	788.644531	56.743206
-7415.047181	4241.837167	787.452148	-45.675179
-7415.047181	4241.837167	786.258789	61.923752
-7415.047181	4241.837167	785.066406	-78.387039
-7415.047181	4241.837167	783.873047	-75.104538
-7415.047181	4241.837167	782.679688	-111.090652
-7415.047181	4241.837167	781.485352	-36.071609
-7415.047181	4241.837167	780.291992	-35.520367
-7415.047181	4241.837167	779.097656	4.264257
-7415.047181	4241.837167	777.903320	30.500898
-7415.047181	4241.837167	776.708008	-93.400024
-7415.047181	4241.837167	775.512695	-113.135902
-7415.047181	4241.837167	774.318359	-65.273758
-7415.047181	4241.837167	773.122070	-66.092300
-7415.047181	4241.837167	771.926758	-88.536392
-7415.047181	4241.837167	770.730469	-43.422062
-7415.047181	4241.837167	769.534180	-33.450649
-7415.047181	4241.837167	768.337891	-65.352631
-7415.047181	4241.837167	767.141602	-85.093361
-7415.047181	4241.837167	765.944336	-126.428566
-7415.047181	4241.837167	764.747070	-39.533737
-7415.047181	4241.837167	763.549805	55.416744
-7415.047181	4241.837167	762.351563	-145.125854
-7415.047181	4241.837167	761.154297	-4.342107
-7415.047181	4241.837167	759.956055	70.301414
-7415.047181	4241.837167	758.757813	-99.122787
-7415.047181	4241.837167	757.558594	29.419483
-7415.047181	4241.837167	756.359375	23.134996
-7415.047181	4241.837167	755.160156	57.270195
-7415.047181	4241.837167	753.960938	-160.525650
-7415.047181	4241.837167	752.761719	48.712620
-7415.047181	4241.837167	751.561523	11.438578
-7415.047181	4241.837167	750.361328	-39.288521
-7415.047181	4241.837167	749.160156	-63.080090
-7415.047181	4241.837167	747.959961	0.603971
-7415.047181	4241.837167	746.758789	-70.288589
-7415.047181	4241.837167	745.557617	2.774109
-7415.047181	4241.837167	744.356445	-96.344398
-7415.047181	4241.837167	743.154297	-7.184811
-7415.047181	4241.837167	741.952148	-29.647879
-7415.047181	4241.837167	740.750000	43.317390
-7415.047181	4241.837167	739.547852	86.681908
-7415.047181	4241.837167	738.344727	213.316025
-7415.047181	4241.837167	737.142578	103.485916
-7415.047181	4241.837167	735.939453	46.067352
-7415.047181	4241.837167	734.735352	187.373444
-7415.047181	4241.837167	733.532227	148.735809
-7415.047181	4241.837167	732.328125	16.159536
-7415.047181	4241.837167	731.124023	94.290199
-7415.047181	4241.837167	729.918945	38.226563
-7415.047181	4241.837167	728.714844	106.909134
-7415.047181	4241.837167	727.509766	3.910762
-7415.047181	4241.837167	726.303711	-42.747509
-7415.047181	4241.837167	725.098633	82.170273
-7415.047181	4241.837167	723.892578	156.099655
-7415.047181	4241.837167	722.686523	97.341972
-7415.047181	4241.837167	721.480469	-9.628111
-7415.047181	4241.837167	720.274414	13.341281
-7415.047181	4241.837167	719.067383	17.541100
-7415.047181	4241.837167	717.860352	-35.840595
-7415.047181	4241.837167	716.653320	-57.092861
-7415.047181	4241.837167	715.445313	-137.230484
-7415.047181	4241.837167	714.238281	-30.050108
-7415.047181	4241.837167	713.030273	-92.804962
-7415.047181	4241.837167	711.821289	-166.249039
-7415.047181	4241.837167	710.613281	-224.973343
-7415.047181	4241.837167	709.404297	25.095911
-7415.047181	4241.837167	708.195313	-63.083630
-7415.047181	4241.837167	706.986328	15.776042
-7415.047181	4241.837167	705.776367	-105.802444
-7415.047181	4241.837167	704.566406	-168.583603
-7415.047181	4241.837167	703.356445	-113.849770
-7415.047181	4241.837167	702.146484	-85.862747
-7415.047181	4241.837167	700.935547	-72.592201
-7415.047181	4241.837167	699.724609	-23.319706
-7415.047181	4241.837167	698.513672	-18.121069
-7415.047181	4241.837167	697.302734	33.738449
-7415.047181	4241.837167	696.090820	116.225113
-7415.047181	4241.837167	694.878906	-109.359589
-7415.047181	4241.837167	693.666992	-41.593937
-7415.047181	4241.837167	692.455078	35.445263
-7415.047181	4241.837167	691.242188	-44.815872
-7415.047181	4241.837167	690.029297	118.732315
-7415.047181	4241.837167	688.816406	29.105751
-7415.047181	4241.837167	687.602539	95.295425
-7415.047181	4241.837167	686.389648	193.380844
-7415.047181	4241.837167	685.175781	50.457394
-7415.047181	4241.837167	683.960938	92.551163
-7415.047181	4241.837167	682.747070	181.164658
-7415.047181	4241.837167	681.532227	204.522491
-7415.047181	4241.837167	680.317383	186.606018
-7415.047181	4241.837167	679.102539	269.721710
-7415.047181	4241.837167	677.886719	124.099564
-7415.047181	4241.837167	676.670898	163.258606
-7415.047181	4241.837167	675.455078	191.732346
-7415.047181	4241.837167	674.239258	157.710983
-7415.047181	4241.837167	673.022461	215.320877
-7415.047181	4241.837167	671.805664	201.151520
-7415.047181	4241.837167	670.588867	325.037140
-7415.047181	4241.837167	669.372070	116.955070
-7415.047181	4241.837167	668.154297	89.420219
-7415.047181	4241.837167	666.936523	171.990921
-7415.047181	4241.837167	665.718750	145.697708
-7415.047181	4241.837167	664.500977	59.684437
-7415.047181	4241.837167	663.282227	163.294952
-7415.047181	4241.837167	662.063477	159.424637
-7415.047181	4241.837167	660.844727	33.560608
-7415.047181	4241.837167	659.625000	102.515350
-7415.047181	4241.837167	658.405273	24.321095
-7415.047181	4241.837167	657.185547	85.204681
-7415.047181	4241.837167	655.965820	213.559464
-7415.047181	4241.837167	654.745117	170.995178
-7415.047181	4241.837167	653.525391	71.473373
-7415.047181	4241.837167	652.303711	55.325943
-7415.047181	4241.837167	651.083008	96.037033
-7415.047181	4241.837167	649.861328	87.725014
-7415.047181	4241.837167	648.640625	-37.036869
-7415.047181	4241.837167	647.417969	151.621857
-7415.047181	4241.837167	646.196289	136.531052
-7415.047181	4241.837167	644.973633	174.265823
-7415.047181	4241.837167	643.750977	90.339386
-7415.047181	4241.837167	642.528320	-8.142946
-7415.047181	4241.837167	641.305664	47.923672
-7415.047181	4241.837167	640.082031	105.227615
-7415.047181	4241.837167	638.858398	0.026927
-7415.047181	4241.837167	637.634766	201.103226
-7415.047181	4241.837167	636.410156	297.757111
-7415.047181	4241.837167	635.185547	97.384911
-7415.047181	4241.837167	633.960938	-0.051998
-7415.047181	4241.837167	632.736328	120.143562
-7415.047181	4241.837167	631.510742	18.660175
-7415.047181	4241.837167	630.285156	-61.746159
-7415.047181	4241.837167	629.059570	179.475784
-7415.047181	4241.837167	627.833984	100.259041
-7415.047181	4241.837167	626.607422	75.035728
-7415.047181	4241.837167	625.380859	33.948299
-7415.047181	4241.837167	624.154297	16.521160
-7415.047181	4241.837167	622.927734	157.059006
-7415.047181	4241.837167	621.700195	277.719849
-7415.047181	4241.837167	620.472656	65.234268
-7415.047181	4241.837167	619.245117	172.567184
-7415.047181	4241.837167	618.016602	4.790528
-7415.047181	4241.837167	616.788086	140.890976
-7415.047181	4241.837167	615.559570	147.975052
-7415.047181	4241.837167	614.331055	87.925667
-7415.047181	4241.837167	613.101563	190.843430
-7415.047181	4241.837167	611.872070	88.606865
-7415.047181	4241.837167	610.642578	37.592113
-7415.047181	4241.837167	609.413086	83.748062
-7415.047181	4241.837167	608.182617	114.047707
-7415.047181	4241.837167	606.952148	73.346924
-7415.047181	4241.837167	605.721680	87.735283
-7415.047181	4241.837167	604.491211	113.859009
-7415.047181	4241.837167	603.259766	91.336464
-7415.047181	4241.837167	602.028320	73.997925
-7415.047181	4241.837167	600.796875	160.229431
-7415.047181	4241.837167	599.564453	102.074013
-7415.047181	4241.837167	598.332031	147.461304
-7415.047181	4241.837167	597.099609	159.979065
-7415.047181	4241.837167	595.867188	134.405960
-7415.047181	4241.837167	594.633789	23.586166
-7415.047181	4241.837167	593.400391	-71.539650
-7415.047181	4241.837167	592.166992	-47.499374
-7415.047181	4241.837167	590.933594	83.843658
-7415.047181	4241.837167	589.699219	12.104944
-7415.047181	4241.837167	588.464844	1.846576
-7415.047181	4241.837167	587.230469	94.910858
-7415.047181	4241.837167	585.995117	24.294031
-7415.047181	4241.837167	584.760742	-81.686745
-7415.047181	4241.837167	583.525391	-39.903774
-7415.047181	4241.837167	582.289063	1.781540
-7415.047181	4241.837167	581.053711	-104.356194
-7415.047181	4241.837167	579.817383	28.672247
-7415.047181	4241.837167	578.581055	88.386139
-7415.047181	4241.837167	577.343750	63.070065
-7415.047181	4241.837167	576.107422	14.180806
-7415.047181	4241.837167	574.870117	89.302933
-7415.047181	4241.837167	573.631836	217.848160
-7415.047181	4241.837167	572.394531	31.659445
-7415.047181	4241.837167	571.156250	88.230247
-7415.047181	4241.837167	569.917969	102.947113
-7415.047181	4241.837167	568.679688	78.447121
-7415.047181	4241.837167	567.440430	96.921310
-7415.047181	4241.837167	566.202148	-21.604065
-7415.047181	4241.837167	564.961914	76.263573
-7415.047181	4241.837167	563.722656	24.121778
-7415.047181	4241.837167	562.482422	149.160690
-7415.047181	4241.837167	561.243164	148.999863
-7415.047181	4241.837167	560.001953	-2.348574
-7415.047181	4241.837167	558.761719	33.843575
-7415.047181	4241.837167	557.520508	54.319824
-7415.047181	4241.837167	556.279297	102.056435
-7415.047181	4241.837167	555.038086	31.264975
-7415.047181	4241.837167	553.795898	-61.690983
-7415.047181	4241.837167	552.554688	-141.659256
-7415.047181	4241.837167	551.311523	-103.307808
-7415.047181	4241.837167	550.069336	58.507328
-7415.047181	4241.837167	548.826172	151.273758
-7415.047181	4241.837167	547.583984	69.759865
-7415.047181	4241.837167	546.339844	-29.987467
-7415.047181	4241.837167	545.096680	5.377082
-7415.047181	4241.837167	543.852539	-43.777828
-7415.047181	4241.837167	542.608398	9.627401
-7415.047181	4241.837167	541.364258	-31.838978
-7415.047181	4241.837167	540.119141	-148.649109
-7415.047181	4241.837167	538.875000	0.610241
-7415.047181	4241.837167	537.628906	-35.825897
-7415.047181	4241.837167	536.383789	-83.974869
-7415.047181	4241.837167	535.137695	-76.390366
-7415.047181	4241.837167	533.892578	-67.562561
-7415.047181	4241.837167	532.645508	-65.287598
-7415.047181	4241.837167	531.399414	-41.025127
-7415.047181	4241.837167	530.152344	45.375984
-7415.047181	4241.837167	528.905273	-93.763741
-7415.047181	4241.837167	527.658203	-70.966682
-7415.047181	4241.837167	526.410156	-65.070930
-7415.047181	4241.837167	525.163086	5.521880
-7415.047181	4241.837167	523.914063	-24.952833
-7415.047181	4241.837167	522.666016	-87.812241
-7415.047181	4241.837167	521.416992	-88.582367
-7415.047181	4241.837167	520.167969	38.684601
-7415.047181	4241.837167	518.918945	-78.611740
-7415.047181	4241.837167	517.669922	-51.063000
-7415.047181	4241.837167	516.419922	-44.259388
-7415.047181	4241.837167	515.169922	-62.057621
-7415.047181	4241.837167	513.919922	-128.996552
-7415.047181	4241.837167	512.668945	-2.139097
-7415.047181	4241.837167	511.417969	-110.479576
-7415.047181	4241.837167	510.166992	-96.113464
-7415.047181	4241.837167	508.916016	-81.788589
-7415.047181	4241.837167	507.664063	9.950600
-7415.047181	4241.837167	506.412109	-102.311005
-7415.047181	4241.837167	505.160156	3.525446
-7415.047181	4241.837167	503.907227	-138.425385
-7415.047181	4241.837167	502.655273	-104.915619
-7415.047181	4241.837167	501.402344	-97.245499
-7415.047181	4241.837167	500.148438	-148.918777
-7415.047181	4241.837167	498.895508	-208.321274
-7415.047181	4241.837167	497.641602	-96.325645
-7415.047181	4241.837167	496.387695	-327.132996
-7415.047181	4241.837167	495.132813	-152.087860
-7415.047181	4241.837167	493.878906	-202.516434
-7415.047181	4241.837167	492.624023	26.468275
-7415.047181	4241.837167	491.368164	41.628029
-7415.047181	4241.837167	490.113281	-41.047943
-7415.047181	4241.837167	488.857422	-96.687439
-7415.047181	4241.837167	487.601563	-72.552208
-7415.047181	4241.837167	486.344727	3.001317
-7415.047181	4241.837167	485.088867	-47.509361
-7415.047181	4241.837167	483.832031	-33.732738
-7415.047181	4241.837167	482.575195	5.735370
-7415.047181	4241.837167	481.317383	-61.497772
-7415.047181	4241.837167	480.059570	4.915307
-7415.047181	4241.837167	478.801758	-39.183823
-7415.047181	4241.837167	477.543945	-12.635276
-7415.047181	4241.837167	476.285156	6.183650
-7415.047181	4241.837167	475.027344	66.074379
-7415.047181	4241.837167	473.767578	-43.500687
-7415.047181	4241.837167	472.508789	-96.566376
-7415.047181	4241.837167	471.249023	45.384533
-7415.047181	4241.837167	469.989258	-120.568459
-7415.047181	4241.837167	468.729492	8.492927
-7415.047181	4241.837167	467.469727	-56.103924
-7415.047181	4241.837167	466.208984	26.726095
-7415.047181	4241.837167	464.948242	-122.443657
-7415.047181	4241.837167	463.686523	-17.869049
-7415.047181	4241.837167	462.425781	66.167679
-7415.047181	4241.837167	461.164063	2.873345
-7415.047181	4241.837167	459.901367	134.222321
-7415.047181	4241.837167	458.639648	95.255348
-7415.047181	4241.837167	457.376953	85.728767
-7415.047181	4241.837167	456.114258	21.178204
-7415.047181	4241.837167	454.851563	-15.205572
-7415.047181	4241.837167	453.587891	-0.426269
-7415.047181	4241.837167	452.324219	119.198875
-7415.047181	4241.837167	451.060547	12.466732
-7415.047181	4241.837167	449.796875	77.053940
-7415.047181	4241.837167	448.532227	96.866440
-7415.047181	4241.837167	447.267578	74.493752
-7415.047181	4241.837167	446.002930	-62.849815
-7415.047181	4241.837167	444.737305	91.028381
-7415.047181	4241.837167	443.471680	133.735001
-7415.047181	4241.837167	442.206055	205.765198
-7415.047181	4241.837167	440.940430	178.191101
-7415.047181	4241.837167	439.673828	81.692947
-7415.047181	4241.837167	438.407227	133.195190
-7415.047181	4241.837167	437.140625	147.658127
-7415.047181	4241.837167	435.873047	191.404984
-7415.047181	4241.837167	434.605469	221.074554
-7415.047181	4241.837167	433.337891	198.432266
-7415.047181	4241.837167	432.070313	75.084160
-7415.047181	4241.837167	430.801758	118.641640
-7415.047181	4241.837167	429.533203	111.179337
-7415.047181	4241.837167	428.264648	131.685471
-7415.047181	4241.837167	426.996094	133.026993
-7415.047181	4241.837167	425.726563	167.396286
-7415.047181	4241.837167	424.457031	206.775436
-7415.047181	4241.837167	423.186523	71.736137
-7415.047181	4241.837167	421.916992	332.326141
-7415.047181	4241.837167	420.646484	139.926529
-7415.047181	4241.837167	419.375977	41.620174
-7415.047181	4241.837167	418.104492	310.668884
-7415.047181	4241.837167	416.833008	88.875740
-7415.047181	4241.837167	415.561523	50.064373
-7415.047181	4241.837167	414.290039	61.977036
-7415.047181	4241.837167	413.017578	114.403381
-7415.047181	4241.837167	411.746094	104.459351
-7415.047181	4241.837167	410.472656	208.639374
-7415.047181	4241.837167	409.200195	117.151100
-7415.047181	4241.837167	407.926758	127.071274
-7415.047181	4241.837167	406.653320	297.970673
-7415.047181	4241.837167	405.379883	159.094177
-7415.047181	4241.837167	404.105469	115.211662
-7415.047181	4241.837167	402.831055	74.963501
-7415.047181	4241.837167	401.556641	149.897171
-7415.047181	4241.837167	400.282227	107.979652
-7415.047181	4241.837167	399.006836	82.324409
-7415.047181	4241.837167	397.731445	32.374481
-7415.047181	4241.837167	396.456055	216.531204
-7415.047181	4241.837167	395.179688	105.276299
-7415.047181	4241.837167	393.903320	90.021767
-7415.047181	4241.837167	392.626953	44.110977
-7415.047181	4241.837167	391.350586	-43.839741
-7415.047181	4241.837167	390.073242	71.633011
-7415.047181	4241.837167	388.795898	99.444077
-7415.047181	4241.837167	387.518555	123.107765
-7415.047181	4241.837167	386.240234	64.202370
-7415.047181	4241.837167	384.961914	12.533532
-7415.047181	4241.837167	383.683594	-12.961207
-7415.047181	4241.837167	382.405273	62.236210
-7415.047181	4241.837167	381.125977	133.171417
-7415.047181	4241.837167	379.846680	179.633362
-7415.047181	4241.837167	378.567383	-43.364559
-7415.047181	4241.837167	377.287109	122.092560
-7415.047181	4241.837167	376.006836	21.902208
-7415.047181	4241.837167	374.726563	12.090621
-7415.047181	4241.837167	373.446289	11.830866
-7415.047181	4241.837167	372.165039	7.202616
-7415.047181	4241.837167	370.883789	-98.908424
-7415.047181	4241.837167	369.602539	107.106316
-7415.047181	4241.837167	368.320313	71.599411
-7415.047181	4241.837167	367.039063	12.774096
-7415.047181	4241.837167	365.755859	89.331657
-7415.047181	4241.837167	364.473633	-16.253191
-7415.047181	4241.837167	363.190430	23.545807
-7415.047181	4241.837167	361.907227	-78.481171
-7415.047181	4241.837167	360.624023	90.666718
-7415.047181	4241.837167	359.340820	5.912369
-7415.047181	4241.837167	358.056641	-24.319384
-7415.047181	4241.837167	356.772461	157.188446
-7415.047181	4241.837167	355.487305	83.579262
-7415.047181	4241.837167	354.202148	15.326409
-7415.047181	4241.837167	352.916992	-18.688646
-7415.047181	4241.837167	351.631836	171.287720
-7415.047181	4241.837167	350.346680	154.005295
-7415.047181	4241.837167	349.060547	56.440800
-7415.047181	4241.837167	347.774414	133.643799
-7415.047181	4241.837167	346.487305	91.544289
-7415.047181	4241.837167	345.200195	-29.613234
-7415.047181	4241.837167	343.913086	-32.720695
-7415.047181	4241.837167	342.625977	-106.166161
-7415.047181	4241.837167	341.338867	-29.092630
-7415.047181	4241.837167	340.050781	-176.795135
-7415.047181	4241.837167	338.762695	-41.148952
-7415.047181	4241.837167	337.473633	-82.649918
-7415.047181	4241.837167	336.184570	-141.968491
-7415.047181	4241.837167	334.895508	-142.682114
-7415.047181	4241.837167	333.606445	-241.527603
-7415.047181	4241.837167	332.317383	-93.939270
-7415.047181	4241.837167	331.027344	-74.715111
-7415.047181	4241.837167	329.736328	-208.878006
-7415.047181	4241.837167	328.446289	-61.816456
-7415.047181	4241.837167	327.155273	-224.724518
-7415.047181	4241.837167	325.864258	-77.893028
-7415.047181	4241.837167	324.573242	-129.604965
-7415.047181	4241.837167	323.281250	-67.091202
-7415.047181	4241.837167	321.989258	-206.875839
-7415.047181	4241.837167	320.697266	37.575150
-7415.047181	4241.837167	319.405273	-87.919533
-7415.047181	4241.837167	318.112305	-73.276230
-7415.047181	4241.837167	316.819336	35.162113
-7415.047181	4241.837167	315.526367	-37.598000
-7415.047181	4241.837167	314.232422	-13.024278
-7415.047181	4241.837167	312.938477	48.862186
-7415.047181	4241.837167	311.644531	152.955612
-7415.047181	4241.837167	310.349609	109.342606
-7415.047181	4241.837167	309.054688	216.380798
-7415.047181	4241.837167	307.759766	286.730713
-7415.047181	4241.837167	306.464844	402.667450
-7415.047181	4241.837167	305.168945	426.805603
-7415.047181	4241.837167	303.873047	608.577393
-7415.047181	4241.837167	302.577148	702.202637
-7415.047181	4241.837167	301.281250	713.881653
-7415.047181	4241.837167	299.984375	780.557190
