#X		#Y		#Wave		#Intensity
-6581.289840	4560.738333	1999.946289	15.783412
-6581.289840	4560.738333	1998.981445	70.611572
-6581.289840	4560.738333	1998.017578	121.879936
-6581.289840	4560.738333	1997.052734	-77.100639
-6581.289840	4560.738333	1996.088867	-189.228073
-6581.289840	4560.738333	1995.124023	67.843529
-6581.289840	4560.738333	1994.159180	82.155136
-6581.289840	4560.738333	1993.193359	44.511490
-6581.289840	4560.738333	1992.228516	-54.960213
-6581.289840	4560.738333	1991.262695	-35.530659
-6581.289840	4560.738333	1990.296875	-60.608135
-6581.289840	4560.738333	1989.331055	-85.631020
-6581.289840	4560.738333	1988.365234	50.208431
-6581.289840	4560.738333	1987.398438	45.047520
-6581.289840	4560.738333	1986.432617	30.038523
-6581.289840	4560.738333	1985.465820	59.579037
-6581.289840	4560.738333	1984.499023	-49.293453
-6581.289840	4560.738333	1983.532227	-71.581551
-6581.289840	4560.738333	1982.565430	59.389439
-6581.289840	4560.738333	1981.597656	2.564405
-6581.289840	4560.738333	1980.629883	108.831902
-6581.289840	4560.738333	1979.662109	-22.015606
-6581.289840	4560.738333	1978.694336	62.050732
-6581.289840	4560.738333	1977.726563	12.790738
-6581.289840	4560.738333	1976.758789	5.538014
-6581.289840	4560.738333	1975.790039	69.884315
-6581.289840	4560.738333	1974.821289	-95.253944
-6581.289840	4560.738333	1973.852539	92.486702
-6581.289840	4560.738333	1972.883789	45.847229
-6581.289840	4560.738333	1971.915039	73.229744
-6581.289840	4560.738333	1970.945313	-2.941209
-6581.289840	4560.738333	1969.975586	-2.643707
-6581.289840	4560.738333	1969.005859	-192.120071
-6581.289840	4560.738333	1968.036133	131.073441
-6581.289840	4560.738333	1967.066406	-41.081787
-6581.289840	4560.738333	1966.096680	-43.182980
-6581.289840	4560.738333	1965.125977	129.598969
-6581.289840	4560.738333	1964.155273	14.212333
-6581.289840	4560.738333	1963.184570	49.064854
-6581.289840	4560.738333	1962.213867	29.758160
-6581.289840	4560.738333	1961.242188	84.300217
-6581.289840	4560.738333	1960.271484	-38.339241
-6581.289840	4560.738333	1959.299805	77.715050
-6581.289840	4560.738333	1958.328125	31.386547
-6581.289840	4560.738333	1957.356445	-110.832870
-6581.289840	4560.738333	1956.384766	88.786026
-6581.289840	4560.738333	1955.412109	111.328522
-6581.289840	4560.738333	1954.439453	-6.237916
-6581.289840	4560.738333	1953.467773	38.436993
-6581.289840	4560.738333	1952.495117	186.290756
-6581.289840	4560.738333	1951.521484	-7.374043
-6581.289840	4560.738333	1950.548828	115.872917
-6581.289840	4560.738333	1949.575195	-62.973652
-6581.289840	4560.738333	1948.601563	45.504509
-6581.289840	4560.738333	1947.627930	1.745794
-6581.289840	4560.738333	1946.654297	-54.269875
-6581.289840	4560.738333	1945.680664	-68.552788
-6581.289840	4560.738333	1944.706055	17.754543
-6581.289840	4560.738333	1943.732422	-3.902266
-6581.289840	4560.738333	1942.757813	21.041428
-6581.289840	4560.738333	1941.783203	193.090942
-6581.289840	4560.738333	1940.807617	9.596001
-6581.289840	4560.738333	1939.833008	112.942268
-6581.289840	4560.738333	1938.857422	-107.240631
-6581.289840	4560.738333	1937.881836	0.976513
-6581.289840	4560.738333	1936.906250	65.051346
-6581.289840	4560.738333	1935.930664	67.863388
-6581.289840	4560.738333	1934.955078	114.745796
-6581.289840	4560.738333	1933.978516	-56.301727
-6581.289840	4560.738333	1933.001953	12.600337
-6581.289840	4560.738333	1932.025391	-50.693325
-6581.289840	4560.738333	1931.048828	-28.328020
-6581.289840	4560.738333	1930.072266	40.504574
-6581.289840	4560.738333	1929.094727	9.012192
-6581.289840	4560.738333	1928.118164	151.161896
-6581.289840	4560.738333	1927.140625	-49.075405
-6581.289840	4560.738333	1926.163086	12.336229
-6581.289840	4560.738333	1925.184570	98.156296
-6581.289840	4560.738333	1924.207031	-40.894604
-6581.289840	4560.738333	1923.228516	30.222290
-6581.289840	4560.738333	1922.250000	52.443867
-6581.289840	4560.738333	1921.271484	94.185982
-6581.289840	4560.738333	1920.292969	94.387924
-6581.289840	4560.738333	1919.314453	-15.290289
-6581.289840	4560.738333	1918.334961	99.637909
-6581.289840	4560.738333	1917.355469	-17.345581
-6581.289840	4560.738333	1916.375977	31.632666
-6581.289840	4560.738333	1915.396484	19.589148
-6581.289840	4560.738333	1914.416992	-63.200356
-6581.289840	4560.738333	1913.436523	75.957741
-6581.289840	4560.738333	1912.457031	132.149628
-6581.289840	4560.738333	1911.476563	-4.284780
-6581.289840	4560.738333	1910.496094	120.123367
-6581.289840	4560.738333	1909.515625	-8.971683
-6581.289840	4560.738333	1908.534180	-174.579498
-6581.289840	4560.738333	1907.552734	-57.555847
-6581.289840	4560.738333	1906.572266	27.750359
-6581.289840	4560.738333	1905.590820	117.881561
-6581.289840	4560.738333	1904.608398	-3.852725
-6581.289840	4560.738333	1903.626953	-20.881159
-6581.289840	4560.738333	1902.644531	13.192649
-6581.289840	4560.738333	1901.663086	27.776035
-6581.289840	4560.738333	1900.680664	5.846899
-6581.289840	4560.738333	1899.698242	-3.924523
-6581.289840	4560.738333	1898.714844	-16.138174
-6581.289840	4560.738333	1897.732422	161.299423
-6581.289840	4560.738333	1896.749023	-106.226166
-6581.289840	4560.738333	1895.765625	-11.504623
-6581.289840	4560.738333	1894.782227	158.503159
-6581.289840	4560.738333	1893.798828	56.309433
-6581.289840	4560.738333	1892.814453	19.730228
-6581.289840	4560.738333	1891.831055	-26.561707
-6581.289840	4560.738333	1890.846680	48.566135
-6581.289840	4560.738333	1889.862305	-99.710480
-6581.289840	4560.738333	1888.877930	6.934685
-6581.289840	4560.738333	1887.892578	-22.383060
-6581.289840	4560.738333	1886.908203	-12.876575
-6581.289840	4560.738333	1885.922852	42.707645
-6581.289840	4560.738333	1884.937500	61.875519
-6581.289840	4560.738333	1883.952148	-86.310860
-6581.289840	4560.738333	1882.965820	-67.151268
-6581.289840	4560.738333	1881.980469	133.808563
-6581.289840	4560.738333	1880.994141	189.252701
-6581.289840	4560.738333	1880.007813	-65.521347
-6581.289840	4560.738333	1879.021484	33.527988
-6581.289840	4560.738333	1878.035156	-78.221252
-6581.289840	4560.738333	1877.047852	25.613234
-6581.289840	4560.738333	1876.061523	119.712898
-6581.289840	4560.738333	1875.074219	-69.499519
-6581.289840	4560.738333	1874.086914	92.336037
-6581.289840	4560.738333	1873.098633	91.948036
-6581.289840	4560.738333	1872.111328	115.748009
-6581.289840	4560.738333	1871.123047	137.107330
-6581.289840	4560.738333	1870.135742	13.322326
-6581.289840	4560.738333	1869.147461	-100.755669
-6581.289840	4560.738333	1868.158203	5.224978
-6581.289840	4560.738333	1867.169922	-162.013077
-6581.289840	4560.738333	1866.180664	-77.834366
-6581.289840	4560.738333	1865.192383	47.385159
-6581.289840	4560.738333	1864.203125	145.969391
-6581.289840	4560.738333	1863.213867	29.516323
-6581.289840	4560.738333	1862.223633	-67.583076
-6581.289840	4560.738333	1861.234375	79.231361
-6581.289840	4560.738333	1860.244141	40.081806
-6581.289840	4560.738333	1859.253906	-47.339001
-6581.289840	4560.738333	1858.263672	-81.642761
-6581.289840	4560.738333	1857.273438	-67.684830
-6581.289840	4560.738333	1856.282227	-39.268127
-6581.289840	4560.738333	1855.291992	131.437637
-6581.289840	4560.738333	1854.300781	-93.423988
-6581.289840	4560.738333	1853.309570	-38.523979
-6581.289840	4560.738333	1852.317383	88.663818
-6581.289840	4560.738333	1851.326172	-75.834930
-6581.289840	4560.738333	1850.333984	0.690646
-6581.289840	4560.738333	1849.342773	-67.375854
-6581.289840	4560.738333	1848.350586	-19.803564
-6581.289840	4560.738333	1847.357422	-39.693962
-6581.289840	4560.738333	1846.365234	68.036789
-6581.289840	4560.738333	1845.372070	101.085335
-6581.289840	4560.738333	1844.379883	45.056534
-6581.289840	4560.738333	1843.386719	54.015644
-6581.289840	4560.738333	1842.393555	197.705338
-6581.289840	4560.738333	1841.399414	-58.006516
-6581.289840	4560.738333	1840.406250	-3.357299
-6581.289840	4560.738333	1839.412109	56.071712
-6581.289840	4560.738333	1838.417969	72.193138
-6581.289840	4560.738333	1837.423828	148.397705
-6581.289840	4560.738333	1836.429688	-37.403366
-6581.289840	4560.738333	1835.434570	19.553265
-6581.289840	4560.738333	1834.440430	90.897964
-6581.289840	4560.738333	1833.445313	51.713921
-6581.289840	4560.738333	1832.450195	70.175499
-6581.289840	4560.738333	1831.454102	-45.841690
-6581.289840	4560.738333	1830.458984	42.237095
-6581.289840	4560.738333	1829.462891	34.265995
-6581.289840	4560.738333	1828.466797	50.288528
-6581.289840	4560.738333	1827.470703	-92.056053
-6581.289840	4560.738333	1826.474609	48.712311
-6581.289840	4560.738333	1825.478516	55.110802
-6581.289840	4560.738333	1824.481445	42.314785
-6581.289840	4560.738333	1823.484375	113.430298
-6581.289840	4560.738333	1822.487305	38.292381
-6581.289840	4560.738333	1821.490234	-34.426517
-6581.289840	4560.738333	1820.493164	-1.693120
-6581.289840	4560.738333	1819.495117	57.372982
-6581.289840	4560.738333	1818.498047	111.622520
-6581.289840	4560.738333	1817.500000	96.394844
-6581.289840	4560.738333	1816.500977	-14.608814
-6581.289840	4560.738333	1815.502930	13.272350
-6581.289840	4560.738333	1814.504883	65.071075
-6581.289840	4560.738333	1813.505859	88.127701
-6581.289840	4560.738333	1812.506836	39.393513
-6581.289840	4560.738333	1811.507813	-9.327223
-6581.289840	4560.738333	1810.508789	123.729225
-6581.289840	4560.738333	1809.508789	0.872409
-6581.289840	4560.738333	1808.508789	62.142494
-6581.289840	4560.738333	1807.508789	171.189926
-6581.289840	4560.738333	1806.508789	-18.537474
-6581.289840	4560.738333	1805.508789	-60.056271
-6581.289840	4560.738333	1804.508789	111.049614
-6581.289840	4560.738333	1803.507813	-33.194492
-6581.289840	4560.738333	1802.506836	140.217911
-6581.289840	4560.738333	1801.505859	-23.087156
-6581.289840	4560.738333	1800.504883	-0.140414
-6581.289840	4560.738333	1799.502930	-10.622107
-6581.289840	4560.738333	1798.501953	60.028576
-6581.289840	4560.738333	1797.500000	116.331467
-6581.289840	4560.738333	1796.498047	58.113373
-6581.289840	4560.738333	1795.496094	35.685364
-6581.289840	4560.738333	1794.493164	-196.567886
-6581.289840	4560.738333	1793.491211	86.198158
-6581.289840	4560.738333	1792.488281	6.558451
-6581.289840	4560.738333	1791.485352	77.076141
-6581.289840	4560.738333	1790.482422	204.745895
-6581.289840	4560.738333	1789.478516	-60.694633
-6581.289840	4560.738333	1788.475586	-2.125482
-6581.289840	4560.738333	1787.471680	-67.409721
-6581.289840	4560.738333	1786.467773	45.885437
-6581.289840	4560.738333	1785.463867	11.552487
-6581.289840	4560.738333	1784.459961	-3.732765
-6581.289840	4560.738333	1783.455078	9.534905
-6581.289840	4560.738333	1782.450195	72.752159
-6581.289840	4560.738333	1781.445313	-68.613716
-6581.289840	4560.738333	1780.440430	4.097956
-6581.289840	4560.738333	1779.435547	-27.837923
-6581.289840	4560.738333	1778.429688	-9.847786
-6581.289840	4560.738333	1777.424805	-1.373165
-6581.289840	4560.738333	1776.418945	-142.613632
-6581.289840	4560.738333	1775.413086	-22.463528
-6581.289840	4560.738333	1774.406250	-63.891304
-6581.289840	4560.738333	1773.400391	-140.929779
-6581.289840	4560.738333	1772.393555	-113.467522
-6581.289840	4560.738333	1771.386719	56.421444
-6581.289840	4560.738333	1770.379883	60.091125
-6581.289840	4560.738333	1769.373047	-16.931141
-6581.289840	4560.738333	1768.365234	-46.477104
-6581.289840	4560.738333	1767.358398	111.392120
-6581.289840	4560.738333	1766.350586	131.632172
-6581.289840	4560.738333	1765.342773	33.294025
-6581.289840	4560.738333	1764.334961	-41.302502
-6581.289840	4560.738333	1763.326172	-30.541912
-6581.289840	4560.738333	1762.318359	91.601128
-6581.289840	4560.738333	1761.309570	92.845398
-6581.289840	4560.738333	1760.300781	41.966019
-6581.289840	4560.738333	1759.291016	66.894867
-6581.289840	4560.738333	1758.282227	219.692947
-6581.289840	4560.738333	1757.272461	100.139061
-6581.289840	4560.738333	1756.262695	-17.006304
-6581.289840	4560.738333	1755.252930	187.775391
-6581.289840	4560.738333	1754.243164	-35.837666
-6581.289840	4560.738333	1753.233398	62.394768
-6581.289840	4560.738333	1752.222656	-109.079842
-6581.289840	4560.738333	1751.211914	142.843719
-6581.289840	4560.738333	1750.201172	-54.600185
-6581.289840	4560.738333	1749.190430	-22.654745
-6581.289840	4560.738333	1748.179688	99.093590
-6581.289840	4560.738333	1747.167969	147.528809
-6581.289840	4560.738333	1746.156250	-82.864456
-6581.289840	4560.738333	1745.144531	-79.305977
-6581.289840	4560.738333	1744.132813	87.214981
-6581.289840	4560.738333	1743.121094	-10.810400
-6581.289840	4560.738333	1742.108398	-45.059185
-6581.289840	4560.738333	1741.095703	-10.845085
-6581.289840	4560.738333	1740.083008	-101.732086
-6581.289840	4560.738333	1739.070313	-22.696779
-6581.289840	4560.738333	1738.057617	42.148022
-6581.289840	4560.738333	1737.043945	-202.029556
-6581.289840	4560.738333	1736.030273	-75.872314
-6581.289840	4560.738333	1735.016602	54.947857
-6581.289840	4560.738333	1734.002930	27.769791
-6581.289840	4560.738333	1732.989258	-11.187298
-6581.289840	4560.738333	1731.974609	79.468330
-6581.289840	4560.738333	1730.959961	97.048004
-6581.289840	4560.738333	1729.945313	124.038513
-6581.289840	4560.738333	1728.930664	92.135620
-6581.289840	4560.738333	1727.916016	1.373486
-6581.289840	4560.738333	1726.900391	-127.028526
-6581.289840	4560.738333	1725.885742	-109.451614
-6581.289840	4560.738333	1724.870117	44.602543
-6581.289840	4560.738333	1723.853516	-15.519412
-6581.289840	4560.738333	1722.837891	-73.268959
-6581.289840	4560.738333	1721.822266	-32.219231
-6581.289840	4560.738333	1720.805664	91.109375
-6581.289840	4560.738333	1719.789063	38.056530
-6581.289840	4560.738333	1718.772461	55.536766
-6581.289840	4560.738333	1717.754883	23.649292
-6581.289840	4560.738333	1716.738281	5.868944
-6581.289840	4560.738333	1715.720703	89.106079
-6581.289840	4560.738333	1714.703125	14.935266
-6581.289840	4560.738333	1713.685547	32.373566
-6581.289840	4560.738333	1712.667969	-91.075134
-6581.289840	4560.738333	1711.649414	-216.831680
-6581.289840	4560.738333	1710.630859	11.852364
-6581.289840	4560.738333	1709.612305	-85.728119
-6581.289840	4560.738333	1708.593750	-129.316803
-6581.289840	4560.738333	1707.575195	-149.437637
-6581.289840	4560.738333	1706.555664	29.783932
-6581.289840	4560.738333	1705.536133	129.208664
-6581.289840	4560.738333	1704.516602	-15.217683
-6581.289840	4560.738333	1703.497070	-9.588376
-6581.289840	4560.738333	1702.477539	-18.026976
-6581.289840	4560.738333	1701.457031	62.561764
-6581.289840	4560.738333	1700.437500	4.908189
-6581.289840	4560.738333	1699.416992	-99.573074
-6581.289840	4560.738333	1698.395508	2.039338
-6581.289840	4560.738333	1697.375000	-11.107703
-6581.289840	4560.738333	1696.354492	76.394524
-6581.289840	4560.738333	1695.333008	198.959106
-6581.289840	4560.738333	1694.311523	19.634834
-6581.289840	4560.738333	1693.290039	13.486144
-6581.289840	4560.738333	1692.267578	70.482277
-6581.289840	4560.738333	1691.246094	106.406387
-6581.289840	4560.738333	1690.223633	130.618362
-6581.289840	4560.738333	1689.201172	0.535639
-6581.289840	4560.738333	1688.178711	22.409204
-6581.289840	4560.738333	1687.155273	37.255634
-6581.289840	4560.738333	1686.132813	-1.639900
-6581.289840	4560.738333	1685.109375	50.565826
-6581.289840	4560.738333	1684.085938	-137.792221
-6581.289840	4560.738333	1683.062500	80.182442
-6581.289840	4560.738333	1682.039063	17.937082
-6581.289840	4560.738333	1681.014648	-76.967804
-6581.289840	4560.738333	1679.990234	89.510796
-6581.289840	4560.738333	1678.965820	-21.715513
-6581.289840	4560.738333	1677.941406	0.053965
-6581.289840	4560.738333	1676.916992	94.106339
-6581.289840	4560.738333	1675.891602	69.195953
-6581.289840	4560.738333	1674.866211	109.564552
-6581.289840	4560.738333	1673.840820	128.933838
-6581.289840	4560.738333	1672.815430	208.879486
-6581.289840	4560.738333	1671.790039	281.798492
-6581.289840	4560.738333	1670.763672	226.559418
-6581.289840	4560.738333	1669.737305	273.812256
-6581.289840	4560.738333	1668.710938	211.598053
-6581.289840	4560.738333	1667.684570	261.151672
-6581.289840	4560.738333	1666.658203	33.686516
-6581.289840	4560.738333	1665.630859	111.167328
-6581.289840	4560.738333	1664.603516	193.265625
-6581.289840	4560.738333	1663.576172	42.693317
-6581.289840	4560.738333	1662.548828	187.559814
-6581.289840	4560.738333	1661.520508	34.706825
-6581.289840	4560.738333	1660.493164	153.931961
-6581.289840	4560.738333	1659.464844	168.498672
-6581.289840	4560.738333	1658.436523	138.895889
-6581.289840	4560.738333	1657.408203	162.742264
-6581.289840	4560.738333	1656.378906	30.917603
-6581.289840	4560.738333	1655.350586	68.700516
-6581.289840	4560.738333	1654.321289	-16.621170
-6581.289840	4560.738333	1653.291992	120.981056
-6581.289840	4560.738333	1652.261719	239.949921
-6581.289840	4560.738333	1651.232422	196.404465
-6581.289840	4560.738333	1650.202148	273.532349
-6581.289840	4560.738333	1649.171875	55.980282
-6581.289840	4560.738333	1648.141602	237.475845
-6581.289840	4560.738333	1647.111328	-10.145487
-6581.289840	4560.738333	1646.080078	92.443314
-6581.289840	4560.738333	1645.049805	204.262665
-6581.289840	4560.738333	1644.018555	158.420166
-6581.289840	4560.738333	1642.987305	367.498077
-6581.289840	4560.738333	1641.955078	275.290680
-6581.289840	4560.738333	1640.923828	62.660709
-6581.289840	4560.738333	1639.891602	128.024841
-6581.289840	4560.738333	1638.859375	378.602539
-6581.289840	4560.738333	1637.827148	348.950531
-6581.289840	4560.738333	1636.794922	289.214874
-6581.289840	4560.738333	1635.761719	333.633148
-6581.289840	4560.738333	1634.729492	322.501801
-6581.289840	4560.738333	1633.696289	96.230125
-6581.289840	4560.738333	1632.662109	92.072540
-6581.289840	4560.738333	1631.628906	71.727821
-6581.289840	4560.738333	1630.594727	134.613556
-6581.289840	4560.738333	1629.561523	246.014923
-6581.289840	4560.738333	1628.527344	311.143951
-6581.289840	4560.738333	1627.493164	159.046356
-6581.289840	4560.738333	1626.458008	226.465607
-6581.289840	4560.738333	1625.423828	346.980408
-6581.289840	4560.738333	1624.388672	308.102051
-6581.289840	4560.738333	1623.353516	130.705368
-6581.289840	4560.738333	1622.318359	311.170349
-6581.289840	4560.738333	1621.282227	235.379593
-6581.289840	4560.738333	1620.247070	291.142822
-6581.289840	4560.738333	1619.210938	381.482513
-6581.289840	4560.738333	1618.174805	319.549927
-6581.289840	4560.738333	1617.137695	384.471344
-6581.289840	4560.738333	1616.101563	322.554504
-6581.289840	4560.738333	1615.064453	232.992798
-6581.289840	4560.738333	1614.027344	203.386719
-6581.289840	4560.738333	1612.990234	339.699738
-6581.289840	4560.738333	1611.953125	252.480759
-6581.289840	4560.738333	1610.916016	285.070709
-6581.289840	4560.738333	1609.877930	356.792664
-6581.289840	4560.738333	1608.839844	345.592316
-6581.289840	4560.738333	1607.801758	223.893585
-6581.289840	4560.738333	1606.763672	371.530548
-6581.289840	4560.738333	1605.724609	491.490387
-6581.289840	4560.738333	1604.685547	220.275375
-6581.289840	4560.738333	1603.646484	450.626892
-6581.289840	4560.738333	1602.607422	604.990784
-6581.289840	4560.738333	1601.568359	501.760803
-6581.289840	4560.738333	1600.528320	451.441620
-6581.289840	4560.738333	1599.489258	426.426483
-6581.289840	4560.738333	1598.449219	493.338013
-6581.289840	4560.738333	1597.408203	470.612366
-6581.289840	4560.738333	1596.368164	312.364960
-6581.289840	4560.738333	1595.327148	358.581665
-6581.289840	4560.738333	1594.287109	531.074768
-6581.289840	4560.738333	1593.246094	409.634247
-6581.289840	4560.738333	1592.204102	481.046417
-6581.289840	4560.738333	1591.163086	387.199707
-6581.289840	4560.738333	1590.121094	444.819702
-6581.289840	4560.738333	1589.079102	465.712494
-6581.289840	4560.738333	1588.037109	562.283508
-6581.289840	4560.738333	1586.995117	457.022583
-6581.289840	4560.738333	1585.953125	445.801483
-6581.289840	4560.738333	1584.910156	535.439392
-6581.289840	4560.738333	1583.867188	482.952301
-6581.289840	4560.738333	1582.824219	448.816498
-6581.289840	4560.738333	1581.781250	384.912964
-6581.289840	4560.738333	1580.737305	357.678558
-6581.289840	4560.738333	1579.693359	479.303162
-6581.289840	4560.738333	1578.649414	555.090637
-6581.289840	4560.738333	1577.605469	429.410248
-6581.289840	4560.738333	1576.561523	502.890594
-6581.289840	4560.738333	1575.516602	448.202454
-6581.289840	4560.738333	1574.472656	306.605774
-6581.289840	4560.738333	1573.427734	352.620178
-6581.289840	4560.738333	1572.381836	325.436798
-6581.289840	4560.738333	1571.336914	472.033783
-6581.289840	4560.738333	1570.291016	396.836121
-6581.289840	4560.738333	1569.246094	328.529480
-6581.289840	4560.738333	1568.200195	248.823532
-6581.289840	4560.738333	1567.153320	463.860992
-6581.289840	4560.738333	1566.107422	592.021423
-6581.289840	4560.738333	1565.060547	299.931458
-6581.289840	4560.738333	1564.013672	501.140808
-6581.289840	4560.738333	1562.966797	321.046112
-6581.289840	4560.738333	1561.919922	319.048431
-6581.289840	4560.738333	1560.872070	337.589600
-6581.289840	4560.738333	1559.825195	335.596497
-6581.289840	4560.738333	1558.777344	310.794952
-6581.289840	4560.738333	1557.729492	447.926514
-6581.289840	4560.738333	1556.680664	299.991669
-6581.289840	4560.738333	1555.632813	222.791260
-6581.289840	4560.738333	1554.583984	327.959869
-6581.289840	4560.738333	1553.535156	378.401154
-6581.289840	4560.738333	1552.486328	403.765686
-6581.289840	4560.738333	1551.436523	506.570099
-6581.289840	4560.738333	1550.387695	413.483307
-6581.289840	4560.738333	1549.337891	368.252258
-6581.289840	4560.738333	1548.288086	250.195679
-6581.289840	4560.738333	1547.238281	266.479218
-6581.289840	4560.738333	1546.187500	271.381287
-6581.289840	4560.738333	1545.136719	192.105774
-6581.289840	4560.738333	1544.086914	301.673035
-6581.289840	4560.738333	1543.035156	149.655640
-6581.289840	4560.738333	1541.984375	272.841217
-6581.289840	4560.738333	1540.933594	316.415863
-6581.289840	4560.738333	1539.881836	230.420227
-6581.289840	4560.738333	1538.830078	260.362854
-6581.289840	4560.738333	1537.778320	515.232727
-6581.289840	4560.738333	1536.725586	431.539703
-6581.289840	4560.738333	1535.673828	347.889099
-6581.289840	4560.738333	1534.621094	318.774139
-6581.289840	4560.738333	1533.568359	453.135986
-6581.289840	4560.738333	1532.515625	333.235535
-6581.289840	4560.738333	1531.461914	338.202393
-6581.289840	4560.738333	1530.409180	238.808762
-6581.289840	4560.738333	1529.355469	314.131897
-6581.289840	4560.738333	1528.301758	316.857605
-6581.289840	4560.738333	1527.247070	317.321503
-6581.289840	4560.738333	1526.193359	322.330902
-6581.289840	4560.738333	1525.138672	216.279068
-6581.289840	4560.738333	1524.083984	205.459656
-6581.289840	4560.738333	1523.029297	289.817169
-6581.289840	4560.738333	1521.974609	249.558365
-6581.289840	4560.738333	1520.918945	111.933479
-6581.289840	4560.738333	1519.863281	112.503685
-6581.289840	4560.738333	1518.807617	169.683716
-6581.289840	4560.738333	1517.751953	97.830704
-6581.289840	4560.738333	1516.696289	89.383781
-6581.289840	4560.738333	1515.639648	101.312531
-6581.289840	4560.738333	1514.583008	163.015945
-6581.289840	4560.738333	1513.526367	118.404839
-6581.289840	4560.738333	1512.469727	-21.150955
-6581.289840	4560.738333	1511.412109	92.573059
-6581.289840	4560.738333	1510.355469	136.193878
-6581.289840	4560.738333	1509.297852	87.149582
-6581.289840	4560.738333	1508.240234	139.815170
-6581.289840	4560.738333	1507.181641	-26.658045
-6581.289840	4560.738333	1506.124023	-19.137058
-6581.289840	4560.738333	1505.065430	-7.092373
-6581.289840	4560.738333	1504.006836	-78.573853
-6581.289840	4560.738333	1502.948242	-41.664810
-6581.289840	4560.738333	1501.888672	-38.610836
-6581.289840	4560.738333	1500.830078	-121.284439
-6581.289840	4560.738333	1499.770508	-233.239471
-6581.289840	4560.738333	1498.710938	-160.187500
-6581.289840	4560.738333	1497.650391	-120.977577
-6581.289840	4560.738333	1496.590820	19.689558
-6581.289840	4560.738333	1495.530273	-92.148529
-6581.289840	4560.738333	1494.469727	-208.433929
-6581.289840	4560.738333	1493.409180	-74.549759
-6581.289840	4560.738333	1492.348633	-325.928467
-6581.289840	4560.738333	1491.287109	-174.025940
-6581.289840	4560.738333	1490.225586	-202.318985
-6581.289840	4560.738333	1489.164063	-77.486649
-6581.289840	4560.738333	1488.102539	49.563061
-6581.289840	4560.738333	1487.041016	-55.226814
-6581.289840	4560.738333	1485.978516	-9.204181
-6581.289840	4560.738333	1484.916016	-113.887932
-6581.289840	4560.738333	1483.853516	-11.628975
-6581.289840	4560.738333	1482.791016	-62.284550
-6581.289840	4560.738333	1481.727539	-54.445667
-6581.289840	4560.738333	1480.664063	-84.800720
-6581.289840	4560.738333	1479.600586	-94.907166
-6581.289840	4560.738333	1478.537109	18.584791
-6581.289840	4560.738333	1477.473633	37.754410
-6581.289840	4560.738333	1476.409180	-1.509738
-6581.289840	4560.738333	1475.344727	67.110207
-6581.289840	4560.738333	1474.280273	122.152496
-6581.289840	4560.738333	1473.215820	-22.449598
-6581.289840	4560.738333	1472.151367	104.451546
-6581.289840	4560.738333	1471.085938	22.753380
-6581.289840	4560.738333	1470.020508	127.302467
-6581.289840	4560.738333	1468.955078	126.378273
-6581.289840	4560.738333	1467.888672	342.692749
-6581.289840	4560.738333	1466.823242	288.237030
-6581.289840	4560.738333	1465.756836	359.109192
-6581.289840	4560.738333	1464.690430	351.570770
-6581.289840	4560.738333	1463.624023	277.117981
-6581.289840	4560.738333	1462.556641	224.934082
-6581.289840	4560.738333	1461.490234	248.903549
-6581.289840	4560.738333	1460.422852	308.509460
-6581.289840	4560.738333	1459.355469	365.707977
-6581.289840	4560.738333	1458.287109	208.608749
-6581.289840	4560.738333	1457.219727	300.139526
-6581.289840	4560.738333	1456.151367	295.481720
-6581.289840	4560.738333	1455.083008	292.859100
-6581.289840	4560.738333	1454.014648	328.243469
-6581.289840	4560.738333	1452.945313	69.063362
-6581.289840	4560.738333	1451.876953	271.828369
-6581.289840	4560.738333	1450.807617	262.419800
-6581.289840	4560.738333	1449.738281	214.785950
-6581.289840	4560.738333	1448.668945	187.912231
-6581.289840	4560.738333	1447.598633	149.696075
-6581.289840	4560.738333	1446.528320	168.230621
-6581.289840	4560.738333	1445.458008	183.821655
-6581.289840	4560.738333	1444.387695	266.711517
-6581.289840	4560.738333	1443.317383	68.355400
-6581.289840	4560.738333	1442.246094	47.230865
-6581.289840	4560.738333	1441.174805	116.789841
-6581.289840	4560.738333	1440.103516	22.466055
-6581.289840	4560.738333	1439.032227	73.396820
-6581.289840	4560.738333	1437.960938	65.803947
-6581.289840	4560.738333	1436.888672	-48.813419
-6581.289840	4560.738333	1435.816406	57.240181
-6581.289840	4560.738333	1434.744141	185.682144
-6581.289840	4560.738333	1433.670898	-154.175308
-6581.289840	4560.738333	1432.598633	16.764444
-6581.289840	4560.738333	1431.525391	87.782478
-6581.289840	4560.738333	1430.452148	68.256744
-6581.289840	4560.738333	1429.378906	2.699059
-6581.289840	4560.738333	1428.304688	-58.712051
-6581.289840	4560.738333	1427.231445	95.926460
-6581.289840	4560.738333	1426.157227	105.515015
-6581.289840	4560.738333	1425.083008	-86.782921
-6581.289840	4560.738333	1424.007813	-44.003086
-6581.289840	4560.738333	1422.933594	60.647499
-6581.289840	4560.738333	1421.858398	-47.388565
-6581.289840	4560.738333	1420.783203	12.042320
-6581.289840	4560.738333	1419.708008	16.882624
-6581.289840	4560.738333	1418.631836	-103.228973
-6581.289840	4560.738333	1417.555664	36.892311
-6581.289840	4560.738333	1416.479492	80.227501
-6581.289840	4560.738333	1415.403320	160.378723
-6581.289840	4560.738333	1414.327148	60.052605
-6581.289840	4560.738333	1413.250000	130.046631
-6581.289840	4560.738333	1412.173828	56.857365
-6581.289840	4560.738333	1411.096680	79.350250
-6581.289840	4560.738333	1410.018555	96.174843
-6581.289840	4560.738333	1408.941406	-1.572361
-6581.289840	4560.738333	1407.863281	94.330193
-6581.289840	4560.738333	1406.785156	-83.003815
-6581.289840	4560.738333	1405.707031	26.350496
-6581.289840	4560.738333	1404.628906	-21.475975
-6581.289840	4560.738333	1403.549805	24.006372
-6581.289840	4560.738333	1402.470703	-27.217783
-6581.289840	4560.738333	1401.391602	97.308144
-6581.289840	4560.738333	1400.312500	101.432838
-6581.289840	4560.738333	1399.233398	97.810150
-6581.289840	4560.738333	1398.153320	-49.959858
-6581.289840	4560.738333	1397.073242	-43.493237
-6581.289840	4560.738333	1395.993164	20.952726
-6581.289840	4560.738333	1394.913086	102.442520
-6581.289840	4560.738333	1393.832031	33.306770
-6581.289840	4560.738333	1392.750977	-94.387581
-6581.289840	4560.738333	1391.669922	69.629517
-6581.289840	4560.738333	1390.588867	117.933769
-6581.289840	4560.738333	1389.506836	56.734310
-6581.289840	4560.738333	1388.425781	4.938635
-6581.289840	4560.738333	1387.343750	-15.804018
-6581.289840	4560.738333	1386.261719	-9.130490
-6581.289840	4560.738333	1385.178711	172.876465
-6581.289840	4560.738333	1384.096680	-7.074625
-6581.289840	4560.738333	1383.013672	85.943520
-6581.289840	4560.738333	1381.930664	137.780273
-6581.289840	4560.738333	1380.846680	-35.085506
-6581.289840	4560.738333	1379.763672	92.706360
-6581.289840	4560.738333	1378.679688	97.963219
-6581.289840	4560.738333	1377.595703	158.931793
-6581.289840	4560.738333	1376.511719	117.513435
-6581.289840	4560.738333	1375.427734	46.456680
-6581.289840	4560.738333	1374.342773	45.614544
-6581.289840	4560.738333	1373.257813	128.773682
-6581.289840	4560.738333	1372.172852	127.984352
-6581.289840	4560.738333	1371.087891	167.160126
-6581.289840	4560.738333	1370.001953	267.304993
-6581.289840	4560.738333	1368.916992	182.594971
-6581.289840	4560.738333	1367.831055	348.778381
-6581.289840	4560.738333	1366.744141	367.854248
-6581.289840	4560.738333	1365.658203	388.701599
-6581.289840	4560.738333	1364.571289	251.062973
-6581.289840	4560.738333	1363.484375	268.666199
-6581.289840	4560.738333	1362.397461	334.179169
-6581.289840	4560.738333	1361.310547	504.698517
-6581.289840	4560.738333	1360.222656	423.295410
-6581.289840	4560.738333	1359.135742	425.602325
-6581.289840	4560.738333	1358.047852	388.879303
-6581.289840	4560.738333	1356.958984	412.390472
-6581.289840	4560.738333	1355.871094	280.995331
-6581.289840	4560.738333	1354.782227	348.012085
-6581.289840	4560.738333	1353.693359	392.652588
-6581.289840	4560.738333	1352.604492	455.683929
-6581.289840	4560.738333	1351.515625	343.643616
-6581.289840	4560.738333	1350.425781	455.010681
-6581.289840	4560.738333	1349.335938	377.717621
-6581.289840	4560.738333	1348.246094	474.881561
-6581.289840	4560.738333	1347.156250	323.061493
-6581.289840	4560.738333	1346.066406	411.493164
-6581.289840	4560.738333	1344.975586	442.662079
-6581.289840	4560.738333	1343.884766	257.681274
-6581.289840	4560.738333	1342.793945	474.428070
-6581.289840	4560.738333	1341.702148	268.261627
-6581.289840	4560.738333	1340.611328	266.628967
-6581.289840	4560.738333	1339.519531	298.253296
-6581.289840	4560.738333	1338.427734	323.072205
-6581.289840	4560.738333	1337.334961	218.512268
-6581.289840	4560.738333	1336.243164	213.682983
-6581.289840	4560.738333	1335.150391	128.536194
-6581.289840	4560.738333	1334.057617	298.410767
-6581.289840	4560.738333	1332.964844	365.971649
-6581.289840	4560.738333	1331.871094	301.872559
-6581.289840	4560.738333	1330.778320	252.114822
-6581.289840	4560.738333	1329.684570	283.800903
-6581.289840	4560.738333	1328.590820	241.807175
-6581.289840	4560.738333	1327.496094	262.472473
-6581.289840	4560.738333	1326.402344	194.524460
-6581.289840	4560.738333	1325.307617	304.326111
-6581.289840	4560.738333	1324.212891	141.376190
-6581.289840	4560.738333	1323.117188	83.979942
-6581.289840	4560.738333	1322.022461	219.150513
-6581.289840	4560.738333	1320.926758	244.598663
-6581.289840	4560.738333	1319.831055	52.732243
-6581.289840	4560.738333	1318.735352	34.406094
-6581.289840	4560.738333	1317.638672	178.997360
-6581.289840	4560.738333	1316.542969	47.992561
-6581.289840	4560.738333	1315.446289	119.773582
-6581.289840	4560.738333	1314.349609	3.296483
-6581.289840	4560.738333	1313.251953	45.051773
-6581.289840	4560.738333	1312.155273	77.634666
-6581.289840	4560.738333	1311.057617	19.407696
-6581.289840	4560.738333	1309.959961	77.042152
-6581.289840	4560.738333	1308.862305	7.952910
-6581.289840	4560.738333	1307.763672	-44.675087
-6581.289840	4560.738333	1306.665039	-42.422565
-6581.289840	4560.738333	1305.566406	99.257179
-6581.289840	4560.738333	1304.467773	141.782928
-6581.289840	4560.738333	1303.369141	39.770226
-6581.289840	4560.738333	1302.269531	115.742004
-6581.289840	4560.738333	1301.169922	155.643784
-6581.289840	4560.738333	1300.070313	145.893356
-6581.289840	4560.738333	1298.970703	61.392395
-6581.289840	4560.738333	1297.870117	131.713211
-6581.289840	4560.738333	1296.769531	147.132797
-6581.289840	4560.738333	1295.668945	192.420975
-6581.289840	4560.738333	1294.568359	201.503326
-6581.289840	4560.738333	1293.466797	149.291611
-6581.289840	4560.738333	1292.366211	181.879288
-6581.289840	4560.738333	1291.264648	238.909851
-6581.289840	4560.738333	1290.162109	235.976913
-6581.289840	4560.738333	1289.060547	195.601547
-6581.289840	4560.738333	1287.958008	150.058716
-6581.289840	4560.738333	1286.855469	206.585175
-6581.289840	4560.738333	1285.752930	210.476608
-6581.289840	4560.738333	1284.650391	70.881729
-6581.289840	4560.738333	1283.546875	127.256393
-6581.289840	4560.738333	1282.444336	135.764999
-6581.289840	4560.738333	1281.339844	167.902435
-6581.289840	4560.738333	1280.236328	98.558159
-6581.289840	4560.738333	1279.132813	30.534689
-6581.289840	4560.738333	1278.028320	121.311867
-6581.289840	4560.738333	1276.923828	28.372837
-6581.289840	4560.738333	1275.819336	97.412704
-6581.289840	4560.738333	1274.713867	161.944550
-6581.289840	4560.738333	1273.608398	95.810356
-6581.289840	4560.738333	1272.503906	-17.473166
-6581.289840	4560.738333	1271.397461	51.310055
-6581.289840	4560.738333	1270.291992	-124.646828
-6581.289840	4560.738333	1269.185547	-30.128828
-6581.289840	4560.738333	1268.080078	-11.328946
-6581.289840	4560.738333	1266.972656	21.077946
-6581.289840	4560.738333	1265.866211	130.186188
-6581.289840	4560.738333	1264.759766	37.831223
-6581.289840	4560.738333	1263.652344	67.288483
-6581.289840	4560.738333	1262.544922	37.681995
-6581.289840	4560.738333	1261.436523	39.167114
-6581.289840	4560.738333	1260.329102	-51.444489
-6581.289840	4560.738333	1259.220703	25.794352
-6581.289840	4560.738333	1258.112305	92.019318
-6581.289840	4560.738333	1257.003906	0.024132
-6581.289840	4560.738333	1255.895508	-28.415575
-6581.289840	4560.738333	1254.786133	54.568020
-6581.289840	4560.738333	1253.676758	-52.472946
-6581.289840	4560.738333	1252.567383	-51.572403
-6581.289840	4560.738333	1251.458008	41.670773
-6581.289840	4560.738333	1250.347656	-6.565006
-6581.289840	4560.738333	1249.237305	175.668823
-6581.289840	4560.738333	1248.126953	109.114708
-6581.289840	4560.738333	1247.016602	100.188400
-6581.289840	4560.738333	1245.905273	142.824722
-6581.289840	4560.738333	1244.793945	326.444336
-6581.289840	4560.738333	1243.682617	110.522095
-6581.289840	4560.738333	1242.571289	126.791168
-6581.289840	4560.738333	1241.459961	78.283035
-6581.289840	4560.738333	1240.347656	-12.398999
-6581.289840	4560.738333	1239.235352	124.416183
-6581.289840	4560.738333	1238.123047	41.088200
-6581.289840	4560.738333	1237.009766	51.332199
-6581.289840	4560.738333	1235.897461	40.297207
-6581.289840	4560.738333	1234.784180	11.915258
-6581.289840	4560.738333	1233.670898	-0.028816
-6581.289840	4560.738333	1232.556641	-17.159185
-6581.289840	4560.738333	1231.443359	10.059337
-6581.289840	4560.738333	1230.329102	-42.672108
-6581.289840	4560.738333	1229.214844	61.176876
-6581.289840	4560.738333	1228.099609	-36.287369
-6581.289840	4560.738333	1226.985352	-121.910110
-6581.289840	4560.738333	1225.870117	-39.638565
-6581.289840	4560.738333	1224.754883	-30.008783
-6581.289840	4560.738333	1223.639648	20.396463
-6581.289840	4560.738333	1222.523438	60.014107
-6581.289840	4560.738333	1221.408203	-13.416213
-6581.289840	4560.738333	1220.291992	33.062145
-6581.289840	4560.738333	1219.174805	-56.053497
-6581.289840	4560.738333	1218.058594	19.598530
-6581.289840	4560.738333	1216.941406	-41.234566
-6581.289840	4560.738333	1215.824219	4.419911
-6581.289840	4560.738333	1214.707031	55.437195
-6581.289840	4560.738333	1213.589844	-39.346542
-6581.289840	4560.738333	1212.471680	-16.341974
-6581.289840	4560.738333	1211.353516	-75.045181
-6581.289840	4560.738333	1210.235352	-58.074081
-6581.289840	4560.738333	1209.117188	-23.048079
-6581.289840	4560.738333	1207.998047	-110.060936
-6581.289840	4560.738333	1206.878906	-73.264496
-6581.289840	4560.738333	1205.759766	-115.536469
-6581.289840	4560.738333	1204.640625	-64.420547
-6581.289840	4560.738333	1203.520508	-69.178947
-6581.289840	4560.738333	1202.401367	-117.159592
-6581.289840	4560.738333	1201.281250	-105.023834
-6581.289840	4560.738333	1200.160156	-141.622025
-6581.289840	4560.738333	1199.040039	-111.371910
-6581.289840	4560.738333	1197.918945	-140.305466
-6581.289840	4560.738333	1196.797852	-79.929527
-6581.289840	4560.738333	1195.676758	-26.050013
-6581.289840	4560.738333	1194.555664	-202.251648
-6581.289840	4560.738333	1193.433594	-263.610077
-6581.289840	4560.738333	1192.311523	-99.776230
-6581.289840	4560.738333	1191.189453	-108.220543
-6581.289840	4560.738333	1190.066406	-40.537724
-6581.289840	4560.738333	1188.944336	-101.723671
-6581.289840	4560.738333	1187.821289	-64.056892
-6581.289840	4560.738333	1186.698242	-87.475899
-6581.289840	4560.738333	1185.574219	18.888004
-6581.289840	4560.738333	1184.451172	6.499853
-6581.289840	4560.738333	1183.327148	-8.047278
-6581.289840	4560.738333	1182.203125	-25.228504
-6581.289840	4560.738333	1181.078125	-62.764992
-6581.289840	4560.738333	1179.954102	-4.078397
-6581.289840	4560.738333	1178.829102	-116.328590
-6581.289840	4560.738333	1177.704102	26.295952
-6581.289840	4560.738333	1176.579102	-101.934013
-6581.289840	4560.738333	1175.453125	43.195412
-6581.289840	4560.738333	1174.327148	-12.186383
-6581.289840	4560.738333	1173.201172	-8.604036
-6581.289840	4560.738333	1172.075195	-40.827305
-6581.289840	4560.738333	1170.949219	30.647003
-6581.289840	4560.738333	1169.822266	-30.748964
-6581.289840	4560.738333	1168.695313	-2.070853
-6581.289840	4560.738333	1167.568359	-36.089878
-6581.289840	4560.738333	1166.440430	19.552368
-6581.289840	4560.738333	1165.313477	-7.040789
-6581.289840	4560.738333	1164.185547	84.655792
-6581.289840	4560.738333	1163.057617	-119.844170
-6581.289840	4560.738333	1161.928711	-19.521154
-6581.289840	4560.738333	1160.800781	-20.063286
-6581.289840	4560.738333	1159.671875	29.577486
-6581.289840	4560.738333	1158.541992	-47.437923
-6581.289840	4560.738333	1157.413086	-49.889904
-6581.289840	4560.738333	1156.283203	-12.600053
-6581.289840	4560.738333	1155.154297	-46.396580
-6581.289840	4560.738333	1154.023438	-32.626316
-6581.289840	4560.738333	1152.893555	-88.154259
-6581.289840	4560.738333	1151.763672	-28.370073
-6581.289840	4560.738333	1150.632813	56.130989
-6581.289840	4560.738333	1149.501953	76.578056
-6581.289840	4560.738333	1148.370117	32.670788
-6581.289840	4560.738333	1147.239258	31.297869
-6581.289840	4560.738333	1146.107422	62.040440
-6581.289840	4560.738333	1144.975586	94.842506
-6581.289840	4560.738333	1143.843750	76.824501
-6581.289840	4560.738333	1142.710938	122.421883
-6581.289840	4560.738333	1141.578125	52.609947
-6581.289840	4560.738333	1140.445313	153.841644
-6581.289840	4560.738333	1139.312500	213.471771
-6581.289840	4560.738333	1138.178711	93.595940
-6581.289840	4560.738333	1137.045898	74.671837
-6581.289840	4560.738333	1135.912109	61.819538
-6581.289840	4560.738333	1134.777344	191.348923
-6581.289840	4560.738333	1133.643555	234.543900
-6581.289840	4560.738333	1132.508789	145.793060
-6581.289840	4560.738333	1131.374023	203.546387
-6581.289840	4560.738333	1130.239258	318.568390
-6581.289840	4560.738333	1129.104492	284.534698
-6581.289840	4560.738333	1127.968750	311.528656
-6581.289840	4560.738333	1126.833008	427.636475
-6581.289840	4560.738333	1125.697266	304.754547
-6581.289840	4560.738333	1124.560547	297.339722
-6581.289840	4560.738333	1123.424805	266.238098
-6581.289840	4560.738333	1122.288086	257.742889
-6581.289840	4560.738333	1121.151367	358.419464
-6581.289840	4560.738333	1120.013672	243.485352
-6581.289840	4560.738333	1118.876953	266.432770
-6581.289840	4560.738333	1117.739258	380.565125
-6581.289840	4560.738333	1116.601563	347.845276
-6581.289840	4560.738333	1115.462891	248.715836
-6581.289840	4560.738333	1114.324219	315.826691
-6581.289840	4560.738333	1113.186523	263.819458
-6581.289840	4560.738333	1112.046875	197.613510
-6581.289840	4560.738333	1110.908203	178.310257
-6581.289840	4560.738333	1109.769531	157.530533
-6581.289840	4560.738333	1108.629883	237.458603
-6581.289840	4560.738333	1107.490234	135.831345
-6581.289840	4560.738333	1106.349609	205.053223
-6581.289840	4560.738333	1105.209961	169.842346
-6581.289840	4560.738333	1104.069336	205.164963
-6581.289840	4560.738333	1102.928711	146.458694
-6581.289840	4560.738333	1101.787109	188.028351
-6581.289840	4560.738333	1100.646484	253.049667
-6581.289840	4560.738333	1099.504883	128.044464
-6581.289840	4560.738333	1098.363281	176.420166
-6581.289840	4560.738333	1097.221680	305.183502
-6581.289840	4560.738333	1096.079102	318.521118
-6581.289840	4560.738333	1094.936523	290.863403
-6581.289840	4560.738333	1093.793945	279.477844
-6581.289840	4560.738333	1092.651367	202.594849
-6581.289840	4560.738333	1091.507813	267.276489
-6581.289840	4560.738333	1090.364258	276.813568
-6581.289840	4560.738333	1089.220703	242.086868
-6581.289840	4560.738333	1088.077148	175.421066
-6581.289840	4560.738333	1086.933594	299.033875
-6581.289840	4560.738333	1085.789063	189.895020
-6581.289840	4560.738333	1084.644531	166.068329
-6581.289840	4560.738333	1083.499023	164.885330
-6581.289840	4560.738333	1082.354492	39.505096
-6581.289840	4560.738333	1081.208984	135.264542
-6581.289840	4560.738333	1080.063477	184.074738
-6581.289840	4560.738333	1078.917969	96.717384
-6581.289840	4560.738333	1077.771484	204.081573
-6581.289840	4560.738333	1076.625977	84.195648
-6581.289840	4560.738333	1075.479492	225.715759
-6581.289840	4560.738333	1074.332031	142.060791
-6581.289840	4560.738333	1073.185547	230.877350
-6581.289840	4560.738333	1072.038086	252.326859
-6581.289840	4560.738333	1070.890625	275.438690
-6581.289840	4560.738333	1069.743164	131.672287
-6581.289840	4560.738333	1068.594727	193.517746
-6581.289840	4560.738333	1067.447266	194.029053
-6581.289840	4560.738333	1066.298828	224.719070
-6581.289840	4560.738333	1065.149414	257.047760
-6581.289840	4560.738333	1064.000977	288.280060
-6581.289840	4560.738333	1062.851563	149.306778
-6581.289840	4560.738333	1061.702148	333.963531
-6581.289840	4560.738333	1060.552734	310.123840
-6581.289840	4560.738333	1059.402344	133.088287
-6581.289840	4560.738333	1058.252930	321.045837
-6581.289840	4560.738333	1057.102539	98.828522
-6581.289840	4560.738333	1055.951172	120.949997
-6581.289840	4560.738333	1054.800781	123.145226
-6581.289840	4560.738333	1053.649414	12.274003
-6581.289840	4560.738333	1052.498047	188.905975
-6581.289840	4560.738333	1051.346680	395.834656
-6581.289840	4560.738333	1050.194336	258.207184
-6581.289840	4560.738333	1049.042969	274.371918
-6581.289840	4560.738333	1047.890625	175.219833
-6581.289840	4560.738333	1046.738281	151.689270
-6581.289840	4560.738333	1045.584961	120.317513
-6581.289840	4560.738333	1044.431641	274.555176
-6581.289840	4560.738333	1043.278320	9.275824
-6581.289840	4560.738333	1042.125000	176.253464
-6581.289840	4560.738333	1040.971680	92.043327
-6581.289840	4560.738333	1039.817383	148.944321
-6581.289840	4560.738333	1038.663086	96.612732
-6581.289840	4560.738333	1037.508789	182.778580
-6581.289840	4560.738333	1036.353516	204.407761
-6581.289840	4560.738333	1035.198242	241.975922
-6581.289840	4560.738333	1034.042969	140.444565
-6581.289840	4560.738333	1032.887695	75.090134
-6581.289840	4560.738333	1031.732422	97.180290
-6581.289840	4560.738333	1030.576172	0.258980
-6581.289840	4560.738333	1029.419922	164.661316
-6581.289840	4560.738333	1028.263672	214.706696
-6581.289840	4560.738333	1027.106445	124.700317
-6581.289840	4560.738333	1025.949219	81.525635
-6581.289840	4560.738333	1024.792969	89.087662
-6581.289840	4560.738333	1023.634766	93.310913
-6581.289840	4560.738333	1022.477539	13.238368
-6581.289840	4560.738333	1021.319336	43.106644
-6581.289840	4560.738333	1020.161133	88.026833
-6581.289840	4560.738333	1019.002930	-10.178207
-6581.289840	4560.738333	1017.843750	93.884995
-6581.289840	4560.738333	1016.684570	158.014572
-6581.289840	4560.738333	1015.525391	63.004120
-6581.289840	4560.738333	1014.366211	42.140354
-6581.289840	4560.738333	1013.207031	-46.297302
-6581.289840	4560.738333	1012.046875	118.073837
-6581.289840	4560.738333	1010.886719	185.395233
-6581.289840	4560.738333	1009.726563	154.744659
-6581.289840	4560.738333	1008.565430	-14.015260
-6581.289840	4560.738333	1007.404297	108.655434
-6581.289840	4560.738333	1006.243164	-6.734834
-6581.289840	4560.738333	1005.082031	76.121208
-6581.289840	4560.738333	1003.920898	81.066460
-6581.289840	4560.738333	1002.758789	-2.459813
-6581.289840	4560.738333	1001.596680	144.886108
-6581.289840	4560.738333	1000.433594	46.298332
-6581.289840	4560.738333	999.271484	25.518932
-6581.289840	4560.738333	998.108398	219.082977
-6581.289840	4560.738333	996.945313	111.919670
-6581.289840	4560.738333	995.782227	203.292358
-6581.289840	4560.738333	994.618164	-32.883698
-6581.289840	4560.738333	993.454102	100.187469
-6581.289840	4560.738333	992.290039	103.123672
-6581.289840	4560.738333	991.125977	102.784950
-6581.289840	4560.738333	989.960938	142.242294
-6581.289840	4560.738333	988.796875	58.026527
-6581.289840	4560.738333	987.630859	-18.146730
-6581.289840	4560.738333	986.465820	-52.318466
-6581.289840	4560.738333	985.300781	-52.758488
-6581.289840	4560.738333	984.134766	96.878593
-6581.289840	4560.738333	982.968750	50.584625
-6581.289840	4560.738333	981.801758	-100.481064
-6581.289840	4560.738333	980.635742	-4.996511
-6581.289840	4560.738333	979.468750	-118.963524
-6581.289840	4560.738333	978.301758	-71.264244
-6581.289840	4560.738333	977.133789	-2.655375
-6581.289840	4560.738333	975.966797	-171.183060
-6581.289840	4560.738333	974.798828	-52.145550
-6581.289840	4560.738333	973.630859	44.184425
-6581.289840	4560.738333	972.461914	-17.967918
-6581.289840	4560.738333	971.293945	-2.435302
-6581.289840	4560.738333	970.125000	-43.237202
-6581.289840	4560.738333	968.956055	-64.986168
-6581.289840	4560.738333	967.786133	-75.620583
-6581.289840	4560.738333	966.617188	19.945831
-6581.289840	4560.738333	965.447266	48.663284
-6581.289840	4560.738333	964.276367	162.021683
-6581.289840	4560.738333	963.106445	161.190857
-6581.289840	4560.738333	961.935547	74.512550
-6581.289840	4560.738333	960.764648	-7.593978
-6581.289840	4560.738333	959.593750	-108.034317
-6581.289840	4560.738333	958.422852	-65.074883
-6581.289840	4560.738333	957.250977	-57.301556
-6581.289840	4560.738333	956.079102	-0.820958
-6581.289840	4560.738333	954.907227	-88.666107
-6581.289840	4560.738333	953.734375	-136.461960
-6581.289840	4560.738333	952.562500	-173.100143
-6581.289840	4560.738333	951.389648	81.714653
-6581.289840	4560.738333	950.215820	33.674015
-6581.289840	4560.738333	949.042969	215.392212
-6581.289840	4560.738333	947.869141	97.913528
-6581.289840	4560.738333	946.695313	112.358452
-6581.289840	4560.738333	945.521484	-57.503315
-6581.289840	4560.738333	944.346680	87.419556
-6581.289840	4560.738333	943.172852	87.639793
-6581.289840	4560.738333	941.998047	-52.269020
-6581.289840	4560.738333	940.822266	7.591730
-6581.289840	4560.738333	939.647461	92.928627
-6581.289840	4560.738333	938.471680	74.729301
-6581.289840	4560.738333	937.295898	68.072243
-6581.289840	4560.738333	936.119141	-5.300855
-6581.289840	4560.738333	934.943359	206.327347
-6581.289840	4560.738333	933.766602	45.635399
-6581.289840	4560.738333	932.589844	303.121704
-6581.289840	4560.738333	931.413086	236.674591
-6581.289840	4560.738333	930.235352	186.440598
-6581.289840	4560.738333	929.057617	234.858521
-6581.289840	4560.738333	927.879883	56.074074
-6581.289840	4560.738333	926.702148	278.845245
-6581.289840	4560.738333	925.523438	263.008423
-6581.289840	4560.738333	924.344727	157.716843
-6581.289840	4560.738333	923.166016	192.348587
-6581.289840	4560.738333	921.987305	139.849625
-6581.289840	4560.738333	920.807617	160.732651
-6581.289840	4560.738333	919.627930	162.276352
-6581.289840	4560.738333	919.497070	12.169956
-6581.289840	4560.738333	918.331055	172.845901
-6581.289840	4560.738333	917.165039	72.268791
-6581.289840	4560.738333	915.999023	102.301575
-6581.289840	4560.738333	914.833008	125.452705
-6581.289840	4560.738333	913.666016	208.130371
-6581.289840	4560.738333	912.499023	167.155716
-6581.289840	4560.738333	911.332031	36.936119
-6581.289840	4560.738333	910.165039	105.856499
-6581.289840	4560.738333	908.997070	211.358246
-6581.289840	4560.738333	907.830078	-126.938530
-6581.289840	4560.738333	906.661133	-103.755852
-6581.289840	4560.738333	905.493164	42.887890
-6581.289840	4560.738333	904.325195	-13.980473
-6581.289840	4560.738333	903.156250	50.312866
-6581.289840	4560.738333	901.987305	0.328761
-6581.289840	4560.738333	900.818359	-134.162628
-6581.289840	4560.738333	899.648438	-1.349302
-6581.289840	4560.738333	898.478516	-7.891128
-6581.289840	4560.738333	897.308594	51.786251
-6581.289840	4560.738333	896.138672	122.856789
-6581.289840	4560.738333	894.968750	-9.221367
-6581.289840	4560.738333	893.797852	-15.740234
-6581.289840	4560.738333	892.626953	46.188648
-6581.289840	4560.738333	891.456055	-8.229525
-6581.289840	4560.738333	890.284180	67.364616
-6581.289840	4560.738333	889.113281	60.852798
-6581.289840	4560.738333	887.941406	93.100113
-6581.289840	4560.738333	886.768555	43.296139
-6581.289840	4560.738333	885.596680	45.922180
-6581.289840	4560.738333	884.423828	94.115807
-6581.289840	4560.738333	883.250977	130.906052
-6581.289840	4560.738333	882.078125	58.382862
-6581.289840	4560.738333	880.905273	145.263123
-6581.289840	4560.738333	879.731445	-97.938499
-6581.289840	4560.738333	878.557617	-42.910297
-6581.289840	4560.738333	877.383789	96.286789
-6581.289840	4560.738333	876.209961	35.247078
-6581.289840	4560.738333	875.035156	58.391479
-6581.289840	4560.738333	873.860352	51.971142
-6581.289840	4560.738333	872.685547	-115.855171
-6581.289840	4560.738333	871.510742	-17.668438
-6581.289840	4560.738333	870.334961	41.852642
-6581.289840	4560.738333	869.159180	17.289753
-6581.289840	4560.738333	867.983398	26.816786
-6581.289840	4560.738333	866.807617	95.395226
-6581.289840	4560.738333	865.630859	-38.134571
-6581.289840	4560.738333	864.454102	-53.553749
-6581.289840	4560.738333	863.277344	62.683147
-6581.289840	4560.738333	862.100586	-0.391604
-6581.289840	4560.738333	860.922852	-6.713033
-6581.289840	4560.738333	859.745117	-65.197083
-6581.289840	4560.738333	858.567383	-23.864719
-6581.289840	4560.738333	857.389648	-93.644615
-6581.289840	4560.738333	856.210938	45.169323
-6581.289840	4560.738333	855.032227	-10.982445
-6581.289840	4560.738333	853.853516	-44.444622
-6581.289840	4560.738333	852.674805	-105.072655
-6581.289840	4560.738333	851.495117	20.067579
-6581.289840	4560.738333	850.315430	-11.093747
-6581.289840	4560.738333	849.135742	-51.292465
-6581.289840	4560.738333	847.956055	-91.467529
-6581.289840	4560.738333	846.775391	65.280998
-6581.289840	4560.738333	845.595703	-35.982018
-6581.289840	4560.738333	844.415039	-46.703758
-6581.289840	4560.738333	843.233398	-132.052673
-6581.289840	4560.738333	842.052734	103.749420
-6581.289840	4560.738333	840.871094	-135.321289
-6581.289840	4560.738333	839.689453	-10.360584
-6581.289840	4560.738333	838.506836	78.397697
-6581.289840	4560.738333	837.325195	-18.152592
-6581.289840	4560.738333	836.142578	-31.071369
-6581.289840	4560.738333	834.959961	-111.734245
-6581.289840	4560.738333	833.777344	35.708828
-6581.289840	4560.738333	832.593750	86.022079
-6581.289840	4560.738333	831.410156	-8.136927
-6581.289840	4560.738333	830.226563	46.690739
-6581.289840	4560.738333	829.042969	51.865368
-6581.289840	4560.738333	827.858398	-114.391785
-6581.289840	4560.738333	826.673828	-79.852875
-6581.289840	4560.738333	825.489258	49.380955
-6581.289840	4560.738333	824.304688	88.393112
-6581.289840	4560.738333	823.120117	-25.870178
-6581.289840	4560.738333	821.934570	-4.872239
-6581.289840	4560.738333	820.749023	-80.754898
-6581.289840	4560.738333	819.562500	-25.953634
-6581.289840	4560.738333	818.376953	-45.487911
-6581.289840	4560.738333	817.190430	-71.761299
-6581.289840	4560.738333	816.003906	-111.525551
-6581.289840	4560.738333	814.817383	-29.732414
-6581.289840	4560.738333	813.629883	-22.222164
-6581.289840	4560.738333	812.442383	64.030296
-6581.289840	4560.738333	811.254883	-25.189503
-6581.289840	4560.738333	810.067383	0.320449
-6581.289840	4560.738333	808.878906	-147.294266
-6581.289840	4560.738333	807.690430	-128.501266
-6581.289840	4560.738333	806.501953	-134.432999
-6581.289840	4560.738333	805.313477	-106.654083
-6581.289840	4560.738333	804.124023	-114.823624
-6581.289840	4560.738333	802.934570	-33.146084
-6581.289840	4560.738333	801.745117	70.957489
-6581.289840	4560.738333	800.555664	-4.584367
-6581.289840	4560.738333	799.365234	-10.506446
-6581.289840	4560.738333	798.175781	23.970417
-6581.289840	4560.738333	796.985352	-35.796074
-6581.289840	4560.738333	795.793945	-52.912540
-6581.289840	4560.738333	794.603516	-54.321026
-6581.289840	4560.738333	793.412109	-6.394301
-6581.289840	4560.738333	792.220703	-27.980930
-6581.289840	4560.738333	791.028320	-116.795227
-6581.289840	4560.738333	789.836914	-75.600555
-6581.289840	4560.738333	788.644531	14.870446
-6581.289840	4560.738333	787.452148	31.386868
-6581.289840	4560.738333	786.258789	121.803230
-6581.289840	4560.738333	785.066406	59.927433
-6581.289840	4560.738333	783.873047	9.273417
-6581.289840	4560.738333	782.679688	-25.692490
-6581.289840	4560.738333	781.485352	-27.076223
-6581.289840	4560.738333	780.291992	-32.935143
-6581.289840	4560.738333	779.097656	3.708059
-6581.289840	4560.738333	777.903320	-2.152472
-6581.289840	4560.738333	776.708008	65.771355
-6581.289840	4560.738333	775.512695	-7.158156
-6581.289840	4560.738333	774.318359	-13.014254
-6581.289840	4560.738333	773.122070	-117.178291
-6581.289840	4560.738333	771.926758	-109.605850
-6581.289840	4560.738333	770.730469	-14.930981
-6581.289840	4560.738333	769.534180	-145.830460
-6581.289840	4560.738333	768.337891	13.552395
-6581.289840	4560.738333	767.141602	-19.091297
-6581.289840	4560.738333	765.944336	-29.406588
-6581.289840	4560.738333	764.747070	109.766167
-6581.289840	4560.738333	763.549805	159.651291
-6581.289840	4560.738333	762.351563	180.521194
-6581.289840	4560.738333	761.154297	31.916164
-6581.289840	4560.738333	759.956055	110.757240
-6581.289840	4560.738333	758.757813	124.926239
-6581.289840	4560.738333	757.558594	147.999252
-6581.289840	4560.738333	756.359375	157.691086
-6581.289840	4560.738333	755.160156	309.928680
-6581.289840	4560.738333	753.960938	237.174164
-6581.289840	4560.738333	752.761719	375.961884
-6581.289840	4560.738333	751.561523	474.618378
-6581.289840	4560.738333	750.361328	519.813538
-6581.289840	4560.738333	749.160156	471.530670
-6581.289840	4560.738333	747.959961	236.389648
-6581.289840	4560.738333	746.758789	346.087799
-6581.289840	4560.738333	745.557617	280.059692
-6581.289840	4560.738333	744.356445	160.693161
-6581.289840	4560.738333	743.154297	132.503677
-6581.289840	4560.738333	741.952148	86.538589
-6581.289840	4560.738333	740.750000	56.137432
-6581.289840	4560.738333	739.547852	105.709045
-6581.289840	4560.738333	738.344727	90.845497
-6581.289840	4560.738333	737.142578	13.803061
-6581.289840	4560.738333	735.939453	143.244705
-6581.289840	4560.738333	734.735352	270.403442
-6581.289840	4560.738333	733.532227	306.514160
-6581.289840	4560.738333	732.328125	335.944305
-6581.289840	4560.738333	731.124023	152.408310
-6581.289840	4560.738333	729.918945	272.760864
-6581.289840	4560.738333	728.714844	251.147537
-6581.289840	4560.738333	727.509766	149.728195
-6581.289840	4560.738333	726.303711	161.371140
-6581.289840	4560.738333	725.098633	144.188278
-6581.289840	4560.738333	723.892578	268.783295
-6581.289840	4560.738333	722.686523	189.541061
-6581.289840	4560.738333	721.480469	12.882644
-6581.289840	4560.738333	720.274414	210.444412
-6581.289840	4560.738333	719.067383	164.423706
-6581.289840	4560.738333	717.860352	167.093658
-6581.289840	4560.738333	716.653320	74.605278
-6581.289840	4560.738333	715.445313	13.110477
-6581.289840	4560.738333	714.238281	150.672089
-6581.289840	4560.738333	713.030273	151.066879
-6581.289840	4560.738333	711.821289	100.598175
-6581.289840	4560.738333	710.613281	120.860641
-6581.289840	4560.738333	709.404297	-0.329970
-6581.289840	4560.738333	708.195313	28.746853
-6581.289840	4560.738333	706.986328	33.494572
-6581.289840	4560.738333	705.776367	115.517609
-6581.289840	4560.738333	704.566406	16.433969
-6581.289840	4560.738333	703.356445	85.141762
-6581.289840	4560.738333	702.146484	-133.113266
-6581.289840	4560.738333	700.935547	43.678539
-6581.289840	4560.738333	699.724609	63.742168
-6581.289840	4560.738333	698.513672	-68.412437
-6581.289840	4560.738333	697.302734	77.317894
-6581.289840	4560.738333	696.090820	-39.393688
-6581.289840	4560.738333	694.878906	-74.521790
-6581.289840	4560.738333	693.666992	7.142236
-6581.289840	4560.738333	692.455078	68.919373
-6581.289840	4560.738333	691.242188	-56.594463
-6581.289840	4560.738333	690.029297	38.160385
-6581.289840	4560.738333	688.816406	57.985363
-6581.289840	4560.738333	687.602539	35.950470
-6581.289840	4560.738333	686.389648	62.321499
-6581.289840	4560.738333	685.175781	31.443340
-6581.289840	4560.738333	683.960938	266.762878
-6581.289840	4560.738333	682.747070	229.205261
-6581.289840	4560.738333	681.532227	222.425781
-6581.289840	4560.738333	680.317383	184.841690
-6581.289840	4560.738333	679.102539	200.003967
-6581.289840	4560.738333	677.886719	171.178802
-6581.289840	4560.738333	676.670898	177.495392
-6581.289840	4560.738333	675.455078	192.568741
-6581.289840	4560.738333	674.239258	58.255001
-6581.289840	4560.738333	673.022461	93.055618
-6581.289840	4560.738333	671.805664	156.353836
-6581.289840	4560.738333	670.588867	127.407234
-6581.289840	4560.738333	669.372070	122.584206
-6581.289840	4560.738333	668.154297	91.405640
-6581.289840	4560.738333	666.936523	147.954620
-6581.289840	4560.738333	665.718750	171.553177
-6581.289840	4560.738333	664.500977	78.900307
-6581.289840	4560.738333	663.282227	-18.127707
-6581.289840	4560.738333	662.063477	101.837982
-6581.289840	4560.738333	660.844727	92.436317
-6581.289840	4560.738333	659.625000	190.358963
-6581.289840	4560.738333	658.405273	148.026123
-6581.289840	4560.738333	657.185547	261.162201
-6581.289840	4560.738333	655.965820	172.790970
-6581.289840	4560.738333	654.745117	130.394531
-6581.289840	4560.738333	653.525391	125.188286
-6581.289840	4560.738333	652.303711	12.738503
-6581.289840	4560.738333	651.083008	11.870690
-6581.289840	4560.738333	649.861328	188.127289
-6581.289840	4560.738333	648.640625	-27.134970
-6581.289840	4560.738333	647.417969	87.777359
-6581.289840	4560.738333	646.196289	1.520200
-6581.289840	4560.738333	644.973633	114.126045
-6581.289840	4560.738333	643.750977	58.421246
-6581.289840	4560.738333	642.528320	57.315369
-6581.289840	4560.738333	641.305664	115.141335
-6581.289840	4560.738333	640.082031	214.394226
-6581.289840	4560.738333	638.858398	141.117813
-6581.289840	4560.738333	637.634766	128.948761
-6581.289840	4560.738333	636.410156	33.833256
-6581.289840	4560.738333	635.185547	95.797607
-6581.289840	4560.738333	633.960938	-82.220230
-6581.289840	4560.738333	632.736328	25.468189
-6581.289840	4560.738333	631.510742	-34.797451
-6581.289840	4560.738333	630.285156	90.204605
-6581.289840	4560.738333	629.059570	-44.212158
-6581.289840	4560.738333	627.833984	19.664181
-6581.289840	4560.738333	626.607422	29.021381
-6581.289840	4560.738333	625.380859	105.854301
-6581.289840	4560.738333	624.154297	143.426651
-6581.289840	4560.738333	622.927734	109.110054
-6581.289840	4560.738333	621.700195	-12.286201
-6581.289840	4560.738333	620.472656	-81.440460
-6581.289840	4560.738333	619.245117	66.957916
-6581.289840	4560.738333	618.016602	367.515991
-6581.289840	4560.738333	616.788086	285.175201
-6581.289840	4560.738333	615.559570	224.577698
-6581.289840	4560.738333	614.331055	233.531250
-6581.289840	4560.738333	613.101563	170.729309
-6581.289840	4560.738333	611.872070	-2.892450
-6581.289840	4560.738333	610.642578	66.828743
-6581.289840	4560.738333	609.413086	-52.466824
-6581.289840	4560.738333	608.182617	-34.945614
-6581.289840	4560.738333	606.952148	23.783281
-6581.289840	4560.738333	605.721680	-84.673485
-6581.289840	4560.738333	604.491211	-110.655556
-6581.289840	4560.738333	603.259766	-17.332865
-6581.289840	4560.738333	602.028320	-17.353912
-6581.289840	4560.738333	600.796875	-93.309265
-6581.289840	4560.738333	599.564453	136.449432
-6581.289840	4560.738333	598.332031	79.939362
-6581.289840	4560.738333	597.099609	-117.449585
-6581.289840	4560.738333	595.867188	-48.269337
-6581.289840	4560.738333	594.633789	-135.125977
-6581.289840	4560.738333	593.400391	74.749260
-6581.289840	4560.738333	592.166992	-1.330324
-6581.289840	4560.738333	590.933594	167.233276
-6581.289840	4560.738333	589.699219	88.942337
-6581.289840	4560.738333	588.464844	149.153641
-6581.289840	4560.738333	587.230469	259.073151
-6581.289840	4560.738333	585.995117	74.733353
-6581.289840	4560.738333	584.760742	316.486877
-6581.289840	4560.738333	583.525391	97.562920
-6581.289840	4560.738333	582.289063	354.284119
-6581.289840	4560.738333	581.053711	148.358688
-6581.289840	4560.738333	579.817383	-51.023781
-6581.289840	4560.738333	578.581055	62.903419
-6581.289840	4560.738333	577.343750	137.876846
-6581.289840	4560.738333	576.107422	178.244095
-6581.289840	4560.738333	574.870117	194.819641
-6581.289840	4560.738333	573.631836	142.290924
-6581.289840	4560.738333	572.394531	225.718567
-6581.289840	4560.738333	571.156250	337.135223
-6581.289840	4560.738333	569.917969	204.726761
-6581.289840	4560.738333	568.679688	320.368713
-6581.289840	4560.738333	567.440430	457.500732
-6581.289840	4560.738333	566.202148	381.136292
-6581.289840	4560.738333	564.961914	546.172241
-6581.289840	4560.738333	563.722656	508.566437
-6581.289840	4560.738333	562.482422	389.090546
-6581.289840	4560.738333	561.243164	487.191833
-6581.289840	4560.738333	560.001953	507.706512
-6581.289840	4560.738333	558.761719	295.674591
-6581.289840	4560.738333	557.520508	417.355530
-6581.289840	4560.738333	556.279297	293.633209
-6581.289840	4560.738333	555.038086	243.102554
-6581.289840	4560.738333	553.795898	158.158676
-6581.289840	4560.738333	552.554688	124.854523
-6581.289840	4560.738333	551.311523	181.857147
-6581.289840	4560.738333	550.069336	174.330917
-6581.289840	4560.738333	548.826172	85.120628
-6581.289840	4560.738333	547.583984	124.868675
-6581.289840	4560.738333	546.339844	57.166843
-6581.289840	4560.738333	545.096680	10.963792
-6581.289840	4560.738333	543.852539	140.861130
-6581.289840	4560.738333	542.608398	45.259037
-6581.289840	4560.738333	541.364258	39.844265
-6581.289840	4560.738333	540.119141	58.029030
-6581.289840	4560.738333	538.875000	247.850388
-6581.289840	4560.738333	537.628906	90.065552
-6581.289840	4560.738333	536.383789	166.116501
-6581.289840	4560.738333	535.137695	79.165817
-6581.289840	4560.738333	533.892578	101.583122
-6581.289840	4560.738333	532.645508	59.684681
-6581.289840	4560.738333	531.399414	-12.196871
-6581.289840	4560.738333	530.152344	48.777809
-6581.289840	4560.738333	528.905273	-160.159485
-6581.289840	4560.738333	527.658203	-131.302933
-6581.289840	4560.738333	526.410156	17.436899
-6581.289840	4560.738333	525.163086	-69.346237
-6581.289840	4560.738333	523.914063	40.795761
-6581.289840	4560.738333	522.666016	-18.137501
-6581.289840	4560.738333	521.416992	-143.358444
-6581.289840	4560.738333	520.167969	-5.458526
-6581.289840	4560.738333	518.918945	-60.057671
-6581.289840	4560.738333	517.669922	-3.461826
-6581.289840	4560.738333	516.419922	3.955084
-6581.289840	4560.738333	515.169922	-46.320816
-6581.289840	4560.738333	513.919922	-88.022263
-6581.289840	4560.738333	512.668945	28.362562
-6581.289840	4560.738333	511.417969	148.976959
-6581.289840	4560.738333	510.166992	-110.490456
-6581.289840	4560.738333	508.916016	-0.552241
-6581.289840	4560.738333	507.664063	19.714535
-6581.289840	4560.738333	506.412109	48.518036
-6581.289840	4560.738333	505.160156	-63.471733
-6581.289840	4560.738333	503.907227	-151.942200
-6581.289840	4560.738333	502.655273	53.896748
-6581.289840	4560.738333	501.402344	-96.358170
-6581.289840	4560.738333	500.148438	7.098267
-6581.289840	4560.738333	498.895508	-96.173447
-6581.289840	4560.738333	497.641602	-126.951569
-6581.289840	4560.738333	496.387695	27.609020
-6581.289840	4560.738333	495.132813	-130.925735
-6581.289840	4560.738333	493.878906	-74.336868
-6581.289840	4560.738333	492.624023	-81.616493
-6581.289840	4560.738333	491.368164	-99.518127
-6581.289840	4560.738333	490.113281	-36.540745
-6581.289840	4560.738333	488.857422	-101.209663
-6581.289840	4560.738333	487.601563	-208.369003
-6581.289840	4560.738333	486.344727	-17.777637
-6581.289840	4560.738333	485.088867	-69.599808
-6581.289840	4560.738333	483.832031	-108.629913
-6581.289840	4560.738333	482.575195	81.871239
-6581.289840	4560.738333	481.317383	-84.609711
-6581.289840	4560.738333	480.059570	54.863079
-6581.289840	4560.738333	478.801758	-58.413521
-6581.289840	4560.738333	477.543945	117.123421
-6581.289840	4560.738333	476.285156	-21.553732
-6581.289840	4560.738333	475.027344	-7.351964
-6581.289840	4560.738333	473.767578	68.390129
-6581.289840	4560.738333	472.508789	69.873009
-6581.289840	4560.738333	471.249023	-68.603638
-6581.289840	4560.738333	469.989258	36.840858
-6581.289840	4560.738333	468.729492	-105.774872
-6581.289840	4560.738333	467.469727	52.652229
-6581.289840	4560.738333	466.208984	128.384262
-6581.289840	4560.738333	464.948242	115.119446
-6581.289840	4560.738333	463.686523	-16.739573
-6581.289840	4560.738333	462.425781	-84.997124
-6581.289840	4560.738333	461.164063	94.497292
-6581.289840	4560.738333	459.901367	45.319027
-6581.289840	4560.738333	458.639648	-5.941499
-6581.289840	4560.738333	457.376953	253.853851
-6581.289840	4560.738333	456.114258	52.398849
-6581.289840	4560.738333	454.851563	45.609810
-6581.289840	4560.738333	453.587891	129.750656
-6581.289840	4560.738333	452.324219	103.933838
-6581.289840	4560.738333	451.060547	54.883514
-6581.289840	4560.738333	449.796875	130.528381
-6581.289840	4560.738333	448.532227	45.582203
-6581.289840	4560.738333	447.267578	226.804031
-6581.289840	4560.738333	446.002930	114.419113
-6581.289840	4560.738333	444.737305	132.974442
-6581.289840	4560.738333	443.471680	-13.125245
-6581.289840	4560.738333	442.206055	199.585724
-6581.289840	4560.738333	440.940430	116.812187
-6581.289840	4560.738333	439.673828	36.170506
-6581.289840	4560.738333	438.407227	94.739784
-6581.289840	4560.738333	437.140625	-9.088963
-6581.289840	4560.738333	435.873047	-5.383359
-6581.289840	4560.738333	434.605469	82.600891
-6581.289840	4560.738333	433.337891	-8.585396
-6581.289840	4560.738333	432.070313	-21.813910
-6581.289840	4560.738333	430.801758	-60.344776
-6581.289840	4560.738333	429.533203	4.287539
-6581.289840	4560.738333	428.264648	60.432129
-6581.289840	4560.738333	426.996094	116.509239
-6581.289840	4560.738333	425.726563	235.646240
-6581.289840	4560.738333	424.457031	184.262299
-6581.289840	4560.738333	423.186523	139.155273
-6581.289840	4560.738333	421.916992	125.555511
-6581.289840	4560.738333	420.646484	71.948647
-6581.289840	4560.738333	419.375977	58.237728
-6581.289840	4560.738333	418.104492	147.440002
-6581.289840	4560.738333	416.833008	253.335678
-6581.289840	4560.738333	415.561523	214.151672
-6581.289840	4560.738333	414.290039	-18.330608
-6581.289840	4560.738333	413.017578	169.160934
-6581.289840	4560.738333	411.746094	94.051453
-6581.289840	4560.738333	410.472656	31.458967
-6581.289840	4560.738333	409.200195	235.291290
-6581.289840	4560.738333	407.926758	15.116364
-6581.289840	4560.738333	406.653320	25.645075
-6581.289840	4560.738333	405.379883	88.466507
-6581.289840	4560.738333	404.105469	146.927872
-6581.289840	4560.738333	402.831055	161.199600
-6581.289840	4560.738333	401.556641	244.472168
-6581.289840	4560.738333	400.282227	61.448048
-6581.289840	4560.738333	399.006836	98.290405
-6581.289840	4560.738333	397.731445	63.732189
-6581.289840	4560.738333	396.456055	72.977554
-6581.289840	4560.738333	395.179688	136.453171
-6581.289840	4560.738333	393.903320	28.073244
-6581.289840	4560.738333	392.626953	91.118797
-6581.289840	4560.738333	391.350586	3.285624
-6581.289840	4560.738333	390.073242	72.130501
-6581.289840	4560.738333	388.795898	105.155533
-6581.289840	4560.738333	387.518555	52.195324
-6581.289840	4560.738333	386.240234	42.889183
-6581.289840	4560.738333	384.961914	-25.200090
-6581.289840	4560.738333	383.683594	-24.593775
-6581.289840	4560.738333	382.405273	0.784697
-6581.289840	4560.738333	381.125977	-9.663326
-6581.289840	4560.738333	379.846680	-64.273918
-6581.289840	4560.738333	378.567383	-41.952435
-6581.289840	4560.738333	377.287109	82.276878
-6581.289840	4560.738333	376.006836	24.556168
-6581.289840	4560.738333	374.726563	158.418961
-6581.289840	4560.738333	373.446289	4.006380
-6581.289840	4560.738333	372.165039	70.294533
-6581.289840	4560.738333	370.883789	31.897852
-6581.289840	4560.738333	369.602539	-19.417690
-6581.289840	4560.738333	368.320313	-25.317757
-6581.289840	4560.738333	367.039063	5.834266
-6581.289840	4560.738333	365.755859	40.644108
-6581.289840	4560.738333	364.473633	-124.972618
-6581.289840	4560.738333	363.190430	-12.035703
-6581.289840	4560.738333	361.907227	14.975045
-6581.289840	4560.738333	360.624023	-181.261749
-6581.289840	4560.738333	359.340820	81.866692
-6581.289840	4560.738333	358.056641	-59.292797
-6581.289840	4560.738333	356.772461	-9.649398
-6581.289840	4560.738333	355.487305	10.223884
-6581.289840	4560.738333	354.202148	-1.740423
-6581.289840	4560.738333	352.916992	-128.682388
-6581.289840	4560.738333	351.631836	-17.283096
-6581.289840	4560.738333	350.346680	12.333514
-6581.289840	4560.738333	349.060547	84.810081
-6581.289840	4560.738333	347.774414	56.819832
-6581.289840	4560.738333	346.487305	-17.629639
-6581.289840	4560.738333	345.200195	39.999161
-6581.289840	4560.738333	343.913086	63.569363
-6581.289840	4560.738333	342.625977	-193.829407
-6581.289840	4560.738333	341.338867	-8.070940
-6581.289840	4560.738333	340.050781	106.168114
-6581.289840	4560.738333	338.762695	43.176960
-6581.289840	4560.738333	337.473633	-8.329645
-6581.289840	4560.738333	336.184570	-149.925171
-6581.289840	4560.738333	334.895508	45.283089
-6581.289840	4560.738333	333.606445	75.695023
-6581.289840	4560.738333	332.317383	-85.537636
-6581.289840	4560.738333	331.027344	-140.151566
-6581.289840	4560.738333	329.736328	-127.586815
-6581.289840	4560.738333	328.446289	-95.476845
-6581.289840	4560.738333	327.155273	-87.377075
-6581.289840	4560.738333	325.864258	-55.693443
-6581.289840	4560.738333	324.573242	-2.544439
-6581.289840	4560.738333	323.281250	63.718060
-6581.289840	4560.738333	321.989258	-5.790818
-6581.289840	4560.738333	320.697266	49.444942
-6581.289840	4560.738333	319.405273	-0.099431
-6581.289840	4560.738333	318.112305	-42.850430
-6581.289840	4560.738333	316.819336	-138.726624
-6581.289840	4560.738333	315.526367	-70.870384
-6581.289840	4560.738333	314.232422	-118.231178
-6581.289840	4560.738333	312.938477	-18.551910
-6581.289840	4560.738333	311.644531	5.114846
-6581.289840	4560.738333	310.349609	76.547211
-6581.289840	4560.738333	309.054688	115.248413
-6581.289840	4560.738333	307.759766	84.066086
-6581.289840	4560.738333	306.464844	230.465683
-6581.289840	4560.738333	305.168945	189.305161
-6581.289840	4560.738333	303.873047	222.490250
-6581.289840	4560.738333	302.577148	331.983582
-6581.289840	4560.738333	301.281250	396.121918
-6581.289840	4560.738333	299.984375	334.492615
