#X		#Y		#Wave		#Intensity
-7188.396170	3788.475833	1999.946289	139.040756
-7188.396170	3788.475833	1998.981445	72.940453
-7188.396170	3788.475833	1998.017578	-22.656021
-7188.396170	3788.475833	1997.052734	-61.266197
-7188.396170	3788.475833	1996.088867	-5.757408
-7188.396170	3788.475833	1995.124023	-46.923801
-7188.396170	3788.475833	1994.159180	127.358238
-7188.396170	3788.475833	1993.193359	160.386444
-7188.396170	3788.475833	1992.228516	76.997810
-7188.396170	3788.475833	1991.262695	-75.708679
-7188.396170	3788.475833	1990.296875	-40.304657
-7188.396170	3788.475833	1989.331055	-44.541889
-7188.396170	3788.475833	1988.365234	-115.610634
-7188.396170	3788.475833	1987.398438	-110.008469
-7188.396170	3788.475833	1986.432617	93.401726
-7188.396170	3788.475833	1985.465820	-111.274849
-7188.396170	3788.475833	1984.499023	10.415649
-7188.396170	3788.475833	1983.532227	3.502565
-7188.396170	3788.475833	1982.565430	87.996658
-7188.396170	3788.475833	1981.597656	-69.703499
-7188.396170	3788.475833	1980.629883	51.771992
-7188.396170	3788.475833	1979.662109	-207.182388
-7188.396170	3788.475833	1978.694336	-61.086262
-7188.396170	3788.475833	1977.726563	18.269281
-7188.396170	3788.475833	1976.758789	-60.411781
-7188.396170	3788.475833	1975.790039	-37.898155
-7188.396170	3788.475833	1974.821289	-212.820892
-7188.396170	3788.475833	1973.852539	122.989731
-7188.396170	3788.475833	1972.883789	17.124350
-7188.396170	3788.475833	1971.915039	108.572960
-7188.396170	3788.475833	1970.945313	64.352791
-7188.396170	3788.475833	1969.975586	-48.896702
-7188.396170	3788.475833	1969.005859	254.428680
-7188.396170	3788.475833	1968.036133	232.329605
-7188.396170	3788.475833	1967.066406	15.574322
-7188.396170	3788.475833	1966.096680	114.202499
-7188.396170	3788.475833	1965.125977	-18.742474
-7188.396170	3788.475833	1964.155273	-53.151440
-7188.396170	3788.475833	1963.184570	8.456650
-7188.396170	3788.475833	1962.213867	220.185867
-7188.396170	3788.475833	1961.242188	-89.941063
-7188.396170	3788.475833	1960.271484	170.914795
-7188.396170	3788.475833	1959.299805	116.751450
-7188.396170	3788.475833	1958.328125	50.296207
-7188.396170	3788.475833	1957.356445	20.743872
-7188.396170	3788.475833	1956.384766	62.497231
-7188.396170	3788.475833	1955.412109	224.686279
-7188.396170	3788.475833	1954.439453	45.149616
-7188.396170	3788.475833	1953.467773	-4.082695
-7188.396170	3788.475833	1952.495117	111.314224
-7188.396170	3788.475833	1951.521484	98.915916
-7188.396170	3788.475833	1950.548828	-31.379082
-7188.396170	3788.475833	1949.575195	-2.017470
-7188.396170	3788.475833	1948.601563	272.845184
-7188.396170	3788.475833	1947.627930	17.371317
-7188.396170	3788.475833	1946.654297	-73.576500
-7188.396170	3788.475833	1945.680664	161.860428
-7188.396170	3788.475833	1944.706055	-22.324915
-7188.396170	3788.475833	1943.732422	-69.084557
-7188.396170	3788.475833	1942.757813	-29.998224
-7188.396170	3788.475833	1941.783203	97.339027
-7188.396170	3788.475833	1940.807617	236.880081
-7188.396170	3788.475833	1939.833008	-1.105430
-7188.396170	3788.475833	1938.857422	314.835876
-7188.396170	3788.475833	1937.881836	143.066925
-7188.396170	3788.475833	1936.906250	61.996056
-7188.396170	3788.475833	1935.930664	59.326550
-7188.396170	3788.475833	1934.955078	-14.363346
-7188.396170	3788.475833	1933.978516	90.697495
-7188.396170	3788.475833	1933.001953	-29.491339
-7188.396170	3788.475833	1932.025391	192.999939
-7188.396170	3788.475833	1931.048828	-66.651833
-7188.396170	3788.475833	1930.072266	-15.503219
-7188.396170	3788.475833	1929.094727	-133.159164
-7188.396170	3788.475833	1928.118164	-64.907677
-7188.396170	3788.475833	1927.140625	91.339134
-7188.396170	3788.475833	1926.163086	-97.181870
-7188.396170	3788.475833	1925.184570	239.876465
-7188.396170	3788.475833	1924.207031	134.477081
-7188.396170	3788.475833	1923.228516	38.885555
-7188.396170	3788.475833	1922.250000	-93.318520
-7188.396170	3788.475833	1921.271484	30.976162
-7188.396170	3788.475833	1920.292969	164.988327
-7188.396170	3788.475833	1919.314453	-72.166855
-7188.396170	3788.475833	1918.334961	98.419228
-7188.396170	3788.475833	1917.355469	85.891563
-7188.396170	3788.475833	1916.375977	131.925873
-7188.396170	3788.475833	1915.396484	19.358027
-7188.396170	3788.475833	1914.416992	-73.659729
-7188.396170	3788.475833	1913.436523	106.495964
-7188.396170	3788.475833	1912.457031	13.485331
-7188.396170	3788.475833	1911.476563	-3.922381
-7188.396170	3788.475833	1910.496094	85.916840
-7188.396170	3788.475833	1909.515625	90.423759
-7188.396170	3788.475833	1908.534180	80.301773
-7188.396170	3788.475833	1907.552734	94.538612
-7188.396170	3788.475833	1906.572266	96.586891
-7188.396170	3788.475833	1905.590820	-69.398491
-7188.396170	3788.475833	1904.608398	49.529549
-7188.396170	3788.475833	1903.626953	124.589851
-7188.396170	3788.475833	1902.644531	56.022217
-7188.396170	3788.475833	1901.663086	16.673422
-7188.396170	3788.475833	1900.680664	135.467804
-7188.396170	3788.475833	1899.698242	-98.489708
-7188.396170	3788.475833	1898.714844	-74.580818
-7188.396170	3788.475833	1897.732422	19.825453
-7188.396170	3788.475833	1896.749023	-60.848583
-7188.396170	3788.475833	1895.765625	-61.290958
-7188.396170	3788.475833	1894.782227	-149.226501
-7188.396170	3788.475833	1893.798828	-74.349754
-7188.396170	3788.475833	1892.814453	39.356903
-7188.396170	3788.475833	1891.831055	-60.719624
-7188.396170	3788.475833	1890.846680	201.050858
-7188.396170	3788.475833	1889.862305	13.557488
-7188.396170	3788.475833	1888.877930	20.317602
-7188.396170	3788.475833	1887.892578	31.918098
-7188.396170	3788.475833	1886.908203	201.227402
-7188.396170	3788.475833	1885.922852	-109.897842
-7188.396170	3788.475833	1884.937500	202.462769
-7188.396170	3788.475833	1883.952148	-1.861913
-7188.396170	3788.475833	1882.965820	-80.038971
-7188.396170	3788.475833	1881.980469	47.862617
-7188.396170	3788.475833	1880.994141	78.752090
-7188.396170	3788.475833	1880.007813	51.458115
-7188.396170	3788.475833	1879.021484	-113.943420
-7188.396170	3788.475833	1878.035156	-148.485016
-7188.396170	3788.475833	1877.047852	56.747227
-7188.396170	3788.475833	1876.061523	143.235214
-7188.396170	3788.475833	1875.074219	-184.325821
-7188.396170	3788.475833	1874.086914	-49.441139
-7188.396170	3788.475833	1873.098633	-171.159821
-7188.396170	3788.475833	1872.111328	94.305817
-7188.396170	3788.475833	1871.123047	-121.774887
-7188.396170	3788.475833	1870.135742	54.055717
-7188.396170	3788.475833	1869.147461	38.754402
-7188.396170	3788.475833	1868.158203	-7.989710
-7188.396170	3788.475833	1867.169922	-30.558735
-7188.396170	3788.475833	1866.180664	7.288194
-7188.396170	3788.475833	1865.192383	-305.290924
-7188.396170	3788.475833	1864.203125	-42.746731
-7188.396170	3788.475833	1863.213867	4.692049
-7188.396170	3788.475833	1862.223633	-281.199615
-7188.396170	3788.475833	1861.234375	92.215858
-7188.396170	3788.475833	1860.244141	-17.380404
-7188.396170	3788.475833	1859.253906	-6.263989
-7188.396170	3788.475833	1858.263672	91.709335
-7188.396170	3788.475833	1857.273438	192.039261
-7188.396170	3788.475833	1856.282227	-62.318653
-7188.396170	3788.475833	1855.291992	-46.457081
-7188.396170	3788.475833	1854.300781	-47.503723
-7188.396170	3788.475833	1853.309570	-149.836594
-7188.396170	3788.475833	1852.317383	-56.891819
-7188.396170	3788.475833	1851.326172	11.896292
-7188.396170	3788.475833	1850.333984	95.093239
-7188.396170	3788.475833	1849.342773	-77.144363
-7188.396170	3788.475833	1848.350586	-80.723755
-7188.396170	3788.475833	1847.357422	185.412323
-7188.396170	3788.475833	1846.365234	102.278023
-7188.396170	3788.475833	1845.372070	103.412277
-7188.396170	3788.475833	1844.379883	106.929924
-7188.396170	3788.475833	1843.386719	40.631519
-7188.396170	3788.475833	1842.393555	-189.280624
-7188.396170	3788.475833	1841.399414	4.261014
-7188.396170	3788.475833	1840.406250	41.369522
-7188.396170	3788.475833	1839.412109	90.461487
-7188.396170	3788.475833	1838.417969	-108.133736
-7188.396170	3788.475833	1837.423828	-234.563873
-7188.396170	3788.475833	1836.429688	4.342654
-7188.396170	3788.475833	1835.434570	317.622986
-7188.396170	3788.475833	1834.440430	270.386597
-7188.396170	3788.475833	1833.445313	324.025391
-7188.396170	3788.475833	1832.450195	65.411827
-7188.396170	3788.475833	1831.454102	299.096649
-7188.396170	3788.475833	1830.458984	210.977570
-7188.396170	3788.475833	1829.462891	-18.750919
-7188.396170	3788.475833	1828.466797	200.335510
-7188.396170	3788.475833	1827.470703	198.574493
-7188.396170	3788.475833	1826.474609	4.874977
-7188.396170	3788.475833	1825.478516	94.232788
-7188.396170	3788.475833	1824.481445	73.218987
-7188.396170	3788.475833	1823.484375	95.339127
-7188.396170	3788.475833	1822.487305	-7.226365
-7188.396170	3788.475833	1821.490234	60.375790
-7188.396170	3788.475833	1820.493164	82.395355
-7188.396170	3788.475833	1819.495117	183.431580
-7188.396170	3788.475833	1818.498047	-15.004770
-7188.396170	3788.475833	1817.500000	78.765457
-7188.396170	3788.475833	1816.500977	45.567165
-7188.396170	3788.475833	1815.502930	74.592926
-7188.396170	3788.475833	1814.504883	151.443893
-7188.396170	3788.475833	1813.505859	58.330498
-7188.396170	3788.475833	1812.506836	-13.248197
-7188.396170	3788.475833	1811.507813	207.002533
-7188.396170	3788.475833	1810.508789	250.155731
-7188.396170	3788.475833	1809.508789	15.881660
-7188.396170	3788.475833	1808.508789	61.376808
-7188.396170	3788.475833	1807.508789	44.675159
-7188.396170	3788.475833	1806.508789	152.215988
-7188.396170	3788.475833	1805.508789	-15.094639
-7188.396170	3788.475833	1804.508789	-22.318411
-7188.396170	3788.475833	1803.507813	27.747007
-7188.396170	3788.475833	1802.506836	39.551224
-7188.396170	3788.475833	1801.505859	36.990562
-7188.396170	3788.475833	1800.504883	94.073654
-7188.396170	3788.475833	1799.502930	-280.887909
-7188.396170	3788.475833	1798.501953	-1.918169
-7188.396170	3788.475833	1797.500000	-104.813759
-7188.396170	3788.475833	1796.498047	73.759933
-7188.396170	3788.475833	1795.496094	6.590857
-7188.396170	3788.475833	1794.493164	8.556873
-7188.396170	3788.475833	1793.491211	62.935040
-7188.396170	3788.475833	1792.488281	-90.110603
-7188.396170	3788.475833	1791.485352	-7.212082
-7188.396170	3788.475833	1790.482422	39.879524
-7188.396170	3788.475833	1789.478516	215.549744
-7188.396170	3788.475833	1788.475586	50.536934
-7188.396170	3788.475833	1787.471680	107.002861
-7188.396170	3788.475833	1786.467773	94.367455
-7188.396170	3788.475833	1785.463867	26.951916
-7188.396170	3788.475833	1784.459961	-69.033875
-7188.396170	3788.475833	1783.455078	91.955597
-7188.396170	3788.475833	1782.450195	198.130463
-7188.396170	3788.475833	1781.445313	175.786530
-7188.396170	3788.475833	1780.440430	58.289974
-7188.396170	3788.475833	1779.435547	-9.269441
-7188.396170	3788.475833	1778.429688	203.664398
-7188.396170	3788.475833	1777.424805	90.869720
-7188.396170	3788.475833	1776.418945	137.287857
-7188.396170	3788.475833	1775.413086	200.280579
-7188.396170	3788.475833	1774.406250	184.821854
-7188.396170	3788.475833	1773.400391	76.710686
-7188.396170	3788.475833	1772.393555	-192.864746
-7188.396170	3788.475833	1771.386719	57.536579
-7188.396170	3788.475833	1770.379883	25.348238
-7188.396170	3788.475833	1769.373047	23.985264
-7188.396170	3788.475833	1768.365234	-22.500439
-7188.396170	3788.475833	1767.358398	87.563652
-7188.396170	3788.475833	1766.350586	142.993225
-7188.396170	3788.475833	1765.342773	30.000071
-7188.396170	3788.475833	1764.334961	334.284393
-7188.396170	3788.475833	1763.326172	-56.122555
-7188.396170	3788.475833	1762.318359	-114.619179
-7188.396170	3788.475833	1761.309570	35.382374
-7188.396170	3788.475833	1760.300781	71.572586
-7188.396170	3788.475833	1759.291016	-112.575035
-7188.396170	3788.475833	1758.282227	245.624435
-7188.396170	3788.475833	1757.272461	80.378685
-7188.396170	3788.475833	1756.262695	-25.659716
-7188.396170	3788.475833	1755.252930	-93.827621
-7188.396170	3788.475833	1754.243164	-178.571243
-7188.396170	3788.475833	1753.233398	-43.291885
-7188.396170	3788.475833	1752.222656	6.737671
-7188.396170	3788.475833	1751.211914	-30.794655
-7188.396170	3788.475833	1750.201172	7.314351
-7188.396170	3788.475833	1749.190430	9.909510
-7188.396170	3788.475833	1748.179688	-32.443649
-7188.396170	3788.475833	1747.167969	-51.189934
-7188.396170	3788.475833	1746.156250	97.788467
-7188.396170	3788.475833	1745.144531	-13.181193
-7188.396170	3788.475833	1744.132813	-58.013828
-7188.396170	3788.475833	1743.121094	36.455730
-7188.396170	3788.475833	1742.108398	76.546196
-7188.396170	3788.475833	1741.095703	128.386322
-7188.396170	3788.475833	1740.083008	161.289719
-7188.396170	3788.475833	1739.070313	250.773132
-7188.396170	3788.475833	1738.057617	7.545704
-7188.396170	3788.475833	1737.043945	80.435776
-7188.396170	3788.475833	1736.030273	-146.237289
-7188.396170	3788.475833	1735.016602	89.269852
-7188.396170	3788.475833	1734.002930	131.347977
-7188.396170	3788.475833	1732.989258	-177.805450
-7188.396170	3788.475833	1731.974609	52.747128
-7188.396170	3788.475833	1730.959961	-30.172762
-7188.396170	3788.475833	1729.945313	-21.229973
-7188.396170	3788.475833	1728.930664	-26.456537
-7188.396170	3788.475833	1727.916016	31.858683
-7188.396170	3788.475833	1726.900391	26.548653
-7188.396170	3788.475833	1725.885742	-65.879112
-7188.396170	3788.475833	1724.870117	185.272324
-7188.396170	3788.475833	1723.853516	-130.750793
-7188.396170	3788.475833	1722.837891	-84.411461
-7188.396170	3788.475833	1721.822266	20.674023
-7188.396170	3788.475833	1720.805664	205.632416
-7188.396170	3788.475833	1719.789063	-58.565945
-7188.396170	3788.475833	1718.772461	-54.726482
-7188.396170	3788.475833	1717.754883	-29.777193
-7188.396170	3788.475833	1716.738281	-49.508816
-7188.396170	3788.475833	1715.720703	-130.351837
-7188.396170	3788.475833	1714.703125	-119.592598
-7188.396170	3788.475833	1713.685547	109.526985
-7188.396170	3788.475833	1712.667969	185.912476
-7188.396170	3788.475833	1711.649414	119.037064
-7188.396170	3788.475833	1710.630859	-67.541679
-7188.396170	3788.475833	1709.612305	-14.731673
-7188.396170	3788.475833	1708.593750	42.719322
-7188.396170	3788.475833	1707.575195	-3.090738
-7188.396170	3788.475833	1706.555664	-60.646759
-7188.396170	3788.475833	1705.536133	191.298431
-7188.396170	3788.475833	1704.516602	-35.122055
-7188.396170	3788.475833	1703.497070	24.464167
-7188.396170	3788.475833	1702.477539	201.169708
-7188.396170	3788.475833	1701.457031	-25.215996
-7188.396170	3788.475833	1700.437500	308.320953
-7188.396170	3788.475833	1699.416992	166.258438
-7188.396170	3788.475833	1698.395508	68.706108
-7188.396170	3788.475833	1697.375000	-28.829773
-7188.396170	3788.475833	1696.354492	156.869858
-7188.396170	3788.475833	1695.333008	68.654846
-7188.396170	3788.475833	1694.311523	85.737518
-7188.396170	3788.475833	1693.290039	210.398499
-7188.396170	3788.475833	1692.267578	12.209241
-7188.396170	3788.475833	1691.246094	-59.645950
-7188.396170	3788.475833	1690.223633	22.802633
-7188.396170	3788.475833	1689.201172	102.857292
-7188.396170	3788.475833	1688.178711	33.281094
-7188.396170	3788.475833	1687.155273	143.624908
-7188.396170	3788.475833	1686.132813	216.528336
-7188.396170	3788.475833	1685.109375	174.920853
-7188.396170	3788.475833	1684.085938	16.540438
-7188.396170	3788.475833	1683.062500	-81.094948
-7188.396170	3788.475833	1682.039063	66.397903
-7188.396170	3788.475833	1681.014648	108.777786
-7188.396170	3788.475833	1679.990234	95.113808
-7188.396170	3788.475833	1678.965820	228.418091
-7188.396170	3788.475833	1677.941406	128.387329
-7188.396170	3788.475833	1676.916992	319.895966
-7188.396170	3788.475833	1675.891602	37.965408
-7188.396170	3788.475833	1674.866211	166.426590
-7188.396170	3788.475833	1673.840820	273.841461
-7188.396170	3788.475833	1672.815430	369.544434
-7188.396170	3788.475833	1671.790039	299.767365
-7188.396170	3788.475833	1670.763672	162.436890
-7188.396170	3788.475833	1669.737305	334.902618
-7188.396170	3788.475833	1668.710938	197.583878
-7188.396170	3788.475833	1667.684570	218.612961
-7188.396170	3788.475833	1666.658203	314.103607
-7188.396170	3788.475833	1665.630859	232.665985
-7188.396170	3788.475833	1664.603516	395.555023
-7188.396170	3788.475833	1663.576172	204.764359
-7188.396170	3788.475833	1662.548828	344.307098
-7188.396170	3788.475833	1661.520508	416.337372
-7188.396170	3788.475833	1660.493164	425.558075
-7188.396170	3788.475833	1659.464844	616.068970
-7188.396170	3788.475833	1658.436523	330.055664
-7188.396170	3788.475833	1657.408203	164.969864
-7188.396170	3788.475833	1656.378906	399.516388
-7188.396170	3788.475833	1655.350586	601.449036
-7188.396170	3788.475833	1654.321289	382.952423
-7188.396170	3788.475833	1653.291992	515.126343
-7188.396170	3788.475833	1652.261719	656.517456
-7188.396170	3788.475833	1651.232422	482.203827
-7188.396170	3788.475833	1650.202148	734.911011
-7188.396170	3788.475833	1649.171875	695.186157
-7188.396170	3788.475833	1648.141602	616.036560
-7188.396170	3788.475833	1647.111328	666.780029
-7188.396170	3788.475833	1646.080078	745.314819
-7188.396170	3788.475833	1645.049805	800.636108
-7188.396170	3788.475833	1644.018555	781.753479
-7188.396170	3788.475833	1642.987305	746.650696
-7188.396170	3788.475833	1641.955078	838.978821
-7188.396170	3788.475833	1640.923828	590.754517
-7188.396170	3788.475833	1639.891602	592.743408
-7188.396170	3788.475833	1638.859375	740.606812
-7188.396170	3788.475833	1637.827148	626.803284
-7188.396170	3788.475833	1636.794922	823.203491
-7188.396170	3788.475833	1635.761719	771.898865
-7188.396170	3788.475833	1634.729492	722.932495
-7188.396170	3788.475833	1633.696289	530.552368
-7188.396170	3788.475833	1632.662109	611.155518
-7188.396170	3788.475833	1631.628906	731.044678
-7188.396170	3788.475833	1630.594727	830.072388
-7188.396170	3788.475833	1629.561523	852.789551
-7188.396170	3788.475833	1628.527344	880.114014
-7188.396170	3788.475833	1627.493164	983.679871
-7188.396170	3788.475833	1626.458008	731.435181
-7188.396170	3788.475833	1625.423828	980.504944
-7188.396170	3788.475833	1624.388672	896.940979
-7188.396170	3788.475833	1623.353516	824.956421
-7188.396170	3788.475833	1622.318359	1126.959961
-7188.396170	3788.475833	1621.282227	990.339050
-7188.396170	3788.475833	1620.247070	1031.458008
-7188.396170	3788.475833	1619.210938	892.612854
-7188.396170	3788.475833	1618.174805	1012.163086
-7188.396170	3788.475833	1617.137695	1009.441650
-7188.396170	3788.475833	1616.101563	1126.630981
-7188.396170	3788.475833	1615.064453	1248.385620
-7188.396170	3788.475833	1614.027344	1137.319092
-7188.396170	3788.475833	1612.990234	1173.781372
-7188.396170	3788.475833	1611.953125	850.832581
-7188.396170	3788.475833	1610.916016	1023.257507
-7188.396170	3788.475833	1609.877930	983.744507
-7188.396170	3788.475833	1608.839844	994.912842
-7188.396170	3788.475833	1607.801758	1208.672241
-7188.396170	3788.475833	1606.763672	1254.339478
-7188.396170	3788.475833	1605.724609	904.192139
-7188.396170	3788.475833	1604.685547	1087.964478
-7188.396170	3788.475833	1603.646484	1188.868042
-7188.396170	3788.475833	1602.607422	988.466797
-7188.396170	3788.475833	1601.568359	935.318848
-7188.396170	3788.475833	1600.528320	1050.023926
-7188.396170	3788.475833	1599.489258	967.034546
-7188.396170	3788.475833	1598.449219	985.201965
-7188.396170	3788.475833	1597.408203	803.480774
-7188.396170	3788.475833	1596.368164	1049.124268
-7188.396170	3788.475833	1595.327148	867.495544
-7188.396170	3788.475833	1594.287109	750.257874
-7188.396170	3788.475833	1593.246094	892.503845
-7188.396170	3788.475833	1592.204102	795.990845
-7188.396170	3788.475833	1591.163086	798.220947
-7188.396170	3788.475833	1590.121094	885.360229
-7188.396170	3788.475833	1589.079102	977.073364
-7188.396170	3788.475833	1588.037109	983.909790
-7188.396170	3788.475833	1586.995117	814.196167
-7188.396170	3788.475833	1585.953125	759.203491
-7188.396170	3788.475833	1584.910156	903.672363
-7188.396170	3788.475833	1583.867188	789.137573
-7188.396170	3788.475833	1582.824219	709.042114
-7188.396170	3788.475833	1581.781250	738.962524
-7188.396170	3788.475833	1580.737305	645.207947
-7188.396170	3788.475833	1579.693359	631.664612
-7188.396170	3788.475833	1578.649414	686.837036
-7188.396170	3788.475833	1577.605469	986.946289
-7188.396170	3788.475833	1576.561523	714.807312
-7188.396170	3788.475833	1575.516602	577.798706
-7188.396170	3788.475833	1574.472656	765.735107
-7188.396170	3788.475833	1573.427734	624.251099
-7188.396170	3788.475833	1572.381836	709.242798
-7188.396170	3788.475833	1571.336914	890.264832
-7188.396170	3788.475833	1570.291016	735.205994
-7188.396170	3788.475833	1569.246094	813.363953
-7188.396170	3788.475833	1568.200195	802.399963
-7188.396170	3788.475833	1567.153320	688.659302
-7188.396170	3788.475833	1566.107422	531.601685
-7188.396170	3788.475833	1565.060547	632.690308
-7188.396170	3788.475833	1564.013672	621.891968
-7188.396170	3788.475833	1562.966797	729.837036
-7188.396170	3788.475833	1561.919922	650.619751
-7188.396170	3788.475833	1560.872070	582.872925
-7188.396170	3788.475833	1559.825195	417.089081
-7188.396170	3788.475833	1558.777344	896.925110
-7188.396170	3788.475833	1557.729492	665.074219
-7188.396170	3788.475833	1556.680664	640.835510
-7188.396170	3788.475833	1555.632813	582.452026
-7188.396170	3788.475833	1554.583984	571.987244
-7188.396170	3788.475833	1553.535156	625.368713
-7188.396170	3788.475833	1552.486328	514.729492
-7188.396170	3788.475833	1551.436523	440.612122
-7188.396170	3788.475833	1550.387695	703.625427
-7188.396170	3788.475833	1549.337891	679.671265
-7188.396170	3788.475833	1548.288086	553.323181
-7188.396170	3788.475833	1547.238281	641.015320
-7188.396170	3788.475833	1546.187500	542.106567
-7188.396170	3788.475833	1545.136719	536.561157
-7188.396170	3788.475833	1544.086914	619.777710
-7188.396170	3788.475833	1543.035156	655.234863
-7188.396170	3788.475833	1541.984375	597.497742
-7188.396170	3788.475833	1540.933594	603.479980
-7188.396170	3788.475833	1539.881836	532.218628
-7188.396170	3788.475833	1538.830078	424.669739
-7188.396170	3788.475833	1537.778320	339.926514
-7188.396170	3788.475833	1536.725586	455.157776
-7188.396170	3788.475833	1535.673828	577.205750
-7188.396170	3788.475833	1534.621094	488.071777
-7188.396170	3788.475833	1533.568359	394.478485
-7188.396170	3788.475833	1532.515625	260.110748
-7188.396170	3788.475833	1531.461914	139.455048
-7188.396170	3788.475833	1530.409180	411.418488
-7188.396170	3788.475833	1529.355469	352.122131
-7188.396170	3788.475833	1528.301758	322.381958
-7188.396170	3788.475833	1527.247070	419.679718
-7188.396170	3788.475833	1526.193359	283.479797
-7188.396170	3788.475833	1525.138672	201.777557
-7188.396170	3788.475833	1524.083984	11.379091
-7188.396170	3788.475833	1523.029297	170.033737
-7188.396170	3788.475833	1521.974609	278.838501
-7188.396170	3788.475833	1520.918945	170.218765
-7188.396170	3788.475833	1519.863281	-67.379982
-7188.396170	3788.475833	1518.807617	-130.507233
-7188.396170	3788.475833	1517.751953	-55.482990
-7188.396170	3788.475833	1516.696289	-64.170212
-7188.396170	3788.475833	1515.639648	-41.129639
-7188.396170	3788.475833	1514.583008	-58.764675
-7188.396170	3788.475833	1513.526367	122.693535
-7188.396170	3788.475833	1512.469727	32.777504
-7188.396170	3788.475833	1511.412109	-179.138733
-7188.396170	3788.475833	1510.355469	-17.947832
-7188.396170	3788.475833	1509.297852	21.191772
-7188.396170	3788.475833	1508.240234	-111.351204
-7188.396170	3788.475833	1507.181641	-60.807014
-7188.396170	3788.475833	1506.124023	16.878494
-7188.396170	3788.475833	1505.065430	-198.975159
-7188.396170	3788.475833	1504.006836	-26.361780
-7188.396170	3788.475833	1502.948242	-56.913937
-7188.396170	3788.475833	1501.888672	36.724293
-7188.396170	3788.475833	1500.830078	19.822338
-7188.396170	3788.475833	1499.770508	-121.094696
-7188.396170	3788.475833	1498.710938	85.443939
-7188.396170	3788.475833	1497.650391	-21.492758
-7188.396170	3788.475833	1496.590820	-71.962952
-7188.396170	3788.475833	1495.530273	-38.954792
-7188.396170	3788.475833	1494.469727	111.290314
-7188.396170	3788.475833	1493.409180	-69.691292
-7188.396170	3788.475833	1492.348633	-16.252913
-7188.396170	3788.475833	1491.287109	-122.695351
-7188.396170	3788.475833	1490.225586	-136.708511
-7188.396170	3788.475833	1489.164063	301.882629
-7188.396170	3788.475833	1488.102539	-38.485245
-7188.396170	3788.475833	1487.041016	-108.591232
-7188.396170	3788.475833	1485.978516	-32.355988
-7188.396170	3788.475833	1484.916016	19.190439
-7188.396170	3788.475833	1483.853516	147.197632
-7188.396170	3788.475833	1482.791016	115.578842
-7188.396170	3788.475833	1481.727539	79.541557
-7188.396170	3788.475833	1480.664063	-217.144714
-7188.396170	3788.475833	1479.600586	-172.055023
-7188.396170	3788.475833	1478.537109	95.486565
-7188.396170	3788.475833	1477.473633	138.341522
-7188.396170	3788.475833	1476.409180	217.231247
-7188.396170	3788.475833	1475.344727	257.918152
-7188.396170	3788.475833	1474.280273	143.789993
-7188.396170	3788.475833	1473.215820	227.263931
-7188.396170	3788.475833	1472.151367	32.630116
-7188.396170	3788.475833	1471.085938	105.034050
-7188.396170	3788.475833	1470.020508	520.330566
-7188.396170	3788.475833	1468.955078	339.513885
-7188.396170	3788.475833	1467.888672	387.456268
-7188.396170	3788.475833	1466.823242	318.729980
-7188.396170	3788.475833	1465.756836	409.051117
-7188.396170	3788.475833	1464.690430	280.257629
-7188.396170	3788.475833	1463.624023	446.934479
-7188.396170	3788.475833	1462.556641	477.159302
-7188.396170	3788.475833	1461.490234	442.541840
-7188.396170	3788.475833	1460.422852	392.177673
-7188.396170	3788.475833	1459.355469	596.177795
-7188.396170	3788.475833	1458.287109	497.812439
-7188.396170	3788.475833	1457.219727	547.902710
-7188.396170	3788.475833	1456.151367	525.310364
-7188.396170	3788.475833	1455.083008	577.840393
-7188.396170	3788.475833	1454.014648	568.388367
-7188.396170	3788.475833	1452.945313	331.472809
-7188.396170	3788.475833	1451.876953	581.231628
-7188.396170	3788.475833	1450.807617	781.692078
-7188.396170	3788.475833	1449.738281	716.779114
-7188.396170	3788.475833	1448.668945	575.496582
-7188.396170	3788.475833	1447.598633	664.360413
-7188.396170	3788.475833	1446.528320	459.346008
-7188.396170	3788.475833	1445.458008	501.653564
-7188.396170	3788.475833	1444.387695	677.458862
-7188.396170	3788.475833	1443.317383	683.194458
-7188.396170	3788.475833	1442.246094	638.836548
-7188.396170	3788.475833	1441.174805	562.674622
-7188.396170	3788.475833	1440.103516	552.300476
-7188.396170	3788.475833	1439.032227	520.448486
-7188.396170	3788.475833	1437.960938	475.219147
-7188.396170	3788.475833	1436.888672	444.523407
-7188.396170	3788.475833	1435.816406	559.568542
-7188.396170	3788.475833	1434.744141	480.359314
-7188.396170	3788.475833	1433.670898	492.292206
-7188.396170	3788.475833	1432.598633	388.604431
-7188.396170	3788.475833	1431.525391	114.544121
-7188.396170	3788.475833	1430.452148	236.107239
-7188.396170	3788.475833	1429.378906	339.740936
-7188.396170	3788.475833	1428.304688	299.040253
-7188.396170	3788.475833	1427.231445	325.741699
-7188.396170	3788.475833	1426.157227	52.873333
-7188.396170	3788.475833	1425.083008	81.608490
-7188.396170	3788.475833	1424.007813	215.052139
-7188.396170	3788.475833	1422.933594	262.439392
-7188.396170	3788.475833	1421.858398	98.693253
-7188.396170	3788.475833	1420.783203	209.192871
-7188.396170	3788.475833	1419.708008	182.491821
-7188.396170	3788.475833	1418.631836	296.691437
-7188.396170	3788.475833	1417.555664	335.563324
-7188.396170	3788.475833	1416.479492	262.294769
-7188.396170	3788.475833	1415.403320	235.347565
-7188.396170	3788.475833	1414.327148	122.481339
-7188.396170	3788.475833	1413.250000	195.671707
-7188.396170	3788.475833	1412.173828	166.600769
-7188.396170	3788.475833	1411.096680	272.197540
-7188.396170	3788.475833	1410.018555	111.667091
-7188.396170	3788.475833	1408.941406	236.913834
-7188.396170	3788.475833	1407.863281	199.275314
-7188.396170	3788.475833	1406.785156	95.821251
-7188.396170	3788.475833	1405.707031	222.000702
-7188.396170	3788.475833	1404.628906	396.796875
-7188.396170	3788.475833	1403.549805	407.813751
-7188.396170	3788.475833	1402.470703	317.101349
-7188.396170	3788.475833	1401.391602	417.977814
-7188.396170	3788.475833	1400.312500	300.230042
-7188.396170	3788.475833	1399.233398	383.847046
-7188.396170	3788.475833	1398.153320	553.390137
-7188.396170	3788.475833	1397.073242	478.130737
-7188.396170	3788.475833	1395.993164	525.457214
-7188.396170	3788.475833	1394.913086	381.930878
-7188.396170	3788.475833	1393.832031	612.865173
-7188.396170	3788.475833	1392.750977	475.516602
-7188.396170	3788.475833	1391.669922	255.694473
-7188.396170	3788.475833	1390.588867	668.506897
-7188.396170	3788.475833	1389.506836	305.399475
-7188.396170	3788.475833	1388.425781	261.145386
-7188.396170	3788.475833	1387.343750	354.838165
-7188.396170	3788.475833	1386.261719	519.996582
-7188.396170	3788.475833	1385.178711	442.712860
-7188.396170	3788.475833	1384.096680	405.649475
-7188.396170	3788.475833	1383.013672	560.939392
-7188.396170	3788.475833	1381.930664	579.773987
-7188.396170	3788.475833	1380.846680	416.657806
-7188.396170	3788.475833	1379.763672	495.049744
-7188.396170	3788.475833	1378.679688	433.900543
-7188.396170	3788.475833	1377.595703	330.214874
-7188.396170	3788.475833	1376.511719	274.223907
-7188.396170	3788.475833	1375.427734	394.041534
-7188.396170	3788.475833	1374.342773	482.153046
-7188.396170	3788.475833	1373.257813	474.171234
-7188.396170	3788.475833	1372.172852	504.733521
-7188.396170	3788.475833	1371.087891	428.890350
-7188.396170	3788.475833	1370.001953	325.397644
-7188.396170	3788.475833	1368.916992	197.898849
-7188.396170	3788.475833	1367.831055	315.941345
-7188.396170	3788.475833	1366.744141	449.165558
-7188.396170	3788.475833	1365.658203	552.887451
-7188.396170	3788.475833	1364.571289	266.199677
-7188.396170	3788.475833	1363.484375	494.376678
-7188.396170	3788.475833	1362.397461	398.843903
-7188.396170	3788.475833	1361.310547	529.646851
-7188.396170	3788.475833	1360.222656	314.739136
-7188.396170	3788.475833	1359.135742	500.074829
-7188.396170	3788.475833	1358.047852	425.629883
-7188.396170	3788.475833	1356.958984	538.580811
-7188.396170	3788.475833	1355.871094	287.564972
-7188.396170	3788.475833	1354.782227	263.317383
-7188.396170	3788.475833	1353.693359	477.361115
-7188.396170	3788.475833	1352.604492	355.999451
-7188.396170	3788.475833	1351.515625	381.010345
-7188.396170	3788.475833	1350.425781	403.604614
-7188.396170	3788.475833	1349.335938	406.412537
-7188.396170	3788.475833	1348.246094	612.494202
-7188.396170	3788.475833	1347.156250	280.327820
-7188.396170	3788.475833	1346.066406	217.493011
-7188.396170	3788.475833	1344.975586	304.570892
-7188.396170	3788.475833	1343.884766	509.323334
-7188.396170	3788.475833	1342.793945	488.098602
-7188.396170	3788.475833	1341.702148	444.585327
-7188.396170	3788.475833	1340.611328	475.059235
-7188.396170	3788.475833	1339.519531	459.529999
-7188.396170	3788.475833	1338.427734	423.554199
-7188.396170	3788.475833	1337.334961	354.858673
-7188.396170	3788.475833	1336.243164	321.475739
-7188.396170	3788.475833	1335.150391	211.782471
-7188.396170	3788.475833	1334.057617	400.747406
-7188.396170	3788.475833	1332.964844	260.444336
-7188.396170	3788.475833	1331.871094	352.351288
-7188.396170	3788.475833	1330.778320	597.296021
-7188.396170	3788.475833	1329.684570	317.350372
-7188.396170	3788.475833	1328.590820	327.693573
-7188.396170	3788.475833	1327.496094	199.401505
-7188.396170	3788.475833	1326.402344	333.407043
-7188.396170	3788.475833	1325.307617	426.414185
-7188.396170	3788.475833	1324.212891	220.838303
-7188.396170	3788.475833	1323.117188	307.822784
-7188.396170	3788.475833	1322.022461	438.550232
-7188.396170	3788.475833	1320.926758	384.538391
-7188.396170	3788.475833	1319.831055	483.722961
-7188.396170	3788.475833	1318.735352	535.458069
-7188.396170	3788.475833	1317.638672	172.870529
-7188.396170	3788.475833	1316.542969	383.973755
-7188.396170	3788.475833	1315.446289	453.680237
-7188.396170	3788.475833	1314.349609	294.797699
-7188.396170	3788.475833	1313.251953	446.450226
-7188.396170	3788.475833	1312.155273	467.255371
-7188.396170	3788.475833	1311.057617	540.270508
-7188.396170	3788.475833	1309.959961	555.011108
-7188.396170	3788.475833	1308.862305	387.813660
-7188.396170	3788.475833	1307.763672	556.031921
-7188.396170	3788.475833	1306.665039	322.561157
-7188.396170	3788.475833	1305.566406	454.646057
-7188.396170	3788.475833	1304.467773	540.020508
-7188.396170	3788.475833	1303.369141	256.193756
-7188.396170	3788.475833	1302.269531	216.520676
-7188.396170	3788.475833	1301.169922	250.661118
-7188.396170	3788.475833	1300.070313	525.136047
-7188.396170	3788.475833	1298.970703	407.118805
-7188.396170	3788.475833	1297.870117	324.196777
-7188.396170	3788.475833	1296.769531	320.225952
-7188.396170	3788.475833	1295.668945	530.942200
-7188.396170	3788.475833	1294.568359	191.301056
-7188.396170	3788.475833	1293.466797	247.349945
-7188.396170	3788.475833	1292.366211	92.482796
-7188.396170	3788.475833	1291.264648	88.592804
-7188.396170	3788.475833	1290.162109	43.840668
-7188.396170	3788.475833	1289.060547	154.883865
-7188.396170	3788.475833	1287.958008	44.170387
-7188.396170	3788.475833	1286.855469	165.135178
-7188.396170	3788.475833	1285.752930	150.351929
-7188.396170	3788.475833	1284.650391	203.536957
-7188.396170	3788.475833	1283.546875	73.994682
-7188.396170	3788.475833	1282.444336	114.453613
-7188.396170	3788.475833	1281.339844	80.764626
-7188.396170	3788.475833	1280.236328	62.371750
-7188.396170	3788.475833	1279.132813	81.495430
-7188.396170	3788.475833	1278.028320	56.633553
-7188.396170	3788.475833	1276.923828	35.378082
-7188.396170	3788.475833	1275.819336	59.132813
-7188.396170	3788.475833	1274.713867	130.530426
-7188.396170	3788.475833	1273.608398	129.033936
-7188.396170	3788.475833	1272.503906	83.861198
-7188.396170	3788.475833	1271.397461	27.067598
-7188.396170	3788.475833	1270.291992	66.626022
-7188.396170	3788.475833	1269.185547	47.484097
-7188.396170	3788.475833	1268.080078	-27.231644
-7188.396170	3788.475833	1266.972656	39.611515
-7188.396170	3788.475833	1265.866211	83.099586
-7188.396170	3788.475833	1264.759766	-50.175678
-7188.396170	3788.475833	1263.652344	43.596275
-7188.396170	3788.475833	1262.544922	50.174221
-7188.396170	3788.475833	1261.436523	186.671478
-7188.396170	3788.475833	1260.329102	55.277897
-7188.396170	3788.475833	1259.220703	76.548737
-7188.396170	3788.475833	1258.112305	-15.136170
-7188.396170	3788.475833	1257.003906	23.895531
-7188.396170	3788.475833	1255.895508	-3.012907
-7188.396170	3788.475833	1254.786133	-25.541090
-7188.396170	3788.475833	1253.676758	-11.436168
-7188.396170	3788.475833	1252.567383	38.362892
-7188.396170	3788.475833	1251.458008	-29.486204
-7188.396170	3788.475833	1250.347656	5.047906
-7188.396170	3788.475833	1249.237305	-37.748749
-7188.396170	3788.475833	1248.126953	41.296196
-7188.396170	3788.475833	1247.016602	79.352173
-7188.396170	3788.475833	1245.905273	28.432993
-7188.396170	3788.475833	1244.793945	118.863724
-7188.396170	3788.475833	1243.682617	-196.761398
-7188.396170	3788.475833	1242.571289	123.398964
-7188.396170	3788.475833	1241.459961	129.490799
-7188.396170	3788.475833	1240.347656	8.099222
-7188.396170	3788.475833	1239.235352	89.214340
-7188.396170	3788.475833	1238.123047	78.585678
-7188.396170	3788.475833	1237.009766	-116.745583
-7188.396170	3788.475833	1235.897461	-78.265572
-7188.396170	3788.475833	1234.784180	-98.295738
-7188.396170	3788.475833	1233.670898	62.998737
-7188.396170	3788.475833	1232.556641	103.198105
-7188.396170	3788.475833	1231.443359	148.353378
-7188.396170	3788.475833	1230.329102	54.095219
-7188.396170	3788.475833	1229.214844	-8.357725
-7188.396170	3788.475833	1228.099609	-37.140057
-7188.396170	3788.475833	1226.985352	1.268976
-7188.396170	3788.475833	1225.870117	29.104540
-7188.396170	3788.475833	1224.754883	59.236652
-7188.396170	3788.475833	1223.639648	47.914860
-7188.396170	3788.475833	1222.523438	5.113932
-7188.396170	3788.475833	1221.408203	-123.950020
-7188.396170	3788.475833	1220.291992	-19.065290
-7188.396170	3788.475833	1219.174805	46.661213
-7188.396170	3788.475833	1218.058594	-55.385414
-7188.396170	3788.475833	1216.941406	11.308259
-7188.396170	3788.475833	1215.824219	-86.703125
-7188.396170	3788.475833	1214.707031	-103.870186
-7188.396170	3788.475833	1213.589844	-34.837894
-7188.396170	3788.475833	1212.471680	-50.926437
-7188.396170	3788.475833	1211.353516	-105.682693
-7188.396170	3788.475833	1210.235352	61.439785
-7188.396170	3788.475833	1209.117188	119.163239
-7188.396170	3788.475833	1207.998047	21.892065
-7188.396170	3788.475833	1206.878906	152.579422
-7188.396170	3788.475833	1205.759766	-36.778038
-7188.396170	3788.475833	1204.640625	92.587845
-7188.396170	3788.475833	1203.520508	43.317760
-7188.396170	3788.475833	1202.401367	-7.082803
-7188.396170	3788.475833	1201.281250	-118.128944
-7188.396170	3788.475833	1200.160156	-115.678520
-7188.396170	3788.475833	1199.040039	-12.457403
-7188.396170	3788.475833	1197.918945	-31.720009
-7188.396170	3788.475833	1196.797852	1.407843
-7188.396170	3788.475833	1195.676758	-48.262703
-7188.396170	3788.475833	1194.555664	19.448635
-7188.396170	3788.475833	1193.433594	-95.223785
-7188.396170	3788.475833	1192.311523	-108.229942
-7188.396170	3788.475833	1191.189453	98.975708
-7188.396170	3788.475833	1190.066406	-155.017059
-7188.396170	3788.475833	1188.944336	-91.799080
-7188.396170	3788.475833	1187.821289	-192.752914
-7188.396170	3788.475833	1186.698242	-148.779633
-7188.396170	3788.475833	1185.574219	16.385326
-7188.396170	3788.475833	1184.451172	-279.031372
-7188.396170	3788.475833	1183.327148	-38.635036
-7188.396170	3788.475833	1182.203125	8.900871
-7188.396170	3788.475833	1181.078125	-29.784157
-7188.396170	3788.475833	1179.954102	5.194921
-7188.396170	3788.475833	1178.829102	-111.469505
-7188.396170	3788.475833	1177.704102	99.734749
-7188.396170	3788.475833	1176.579102	-183.867432
-7188.396170	3788.475833	1175.453125	-4.725505
-7188.396170	3788.475833	1174.327148	-63.474674
-7188.396170	3788.475833	1173.201172	16.282215
-7188.396170	3788.475833	1172.075195	-60.488354
-7188.396170	3788.475833	1170.949219	-15.688044
-7188.396170	3788.475833	1169.822266	-47.592564
-7188.396170	3788.475833	1168.695313	-29.298910
-7188.396170	3788.475833	1167.568359	-31.823002
-7188.396170	3788.475833	1166.440430	-122.918137
-7188.396170	3788.475833	1165.313477	-242.731918
-7188.396170	3788.475833	1164.185547	-8.433745
-7188.396170	3788.475833	1163.057617	9.569925
-7188.396170	3788.475833	1161.928711	-51.296532
-7188.396170	3788.475833	1160.800781	147.354614
-7188.396170	3788.475833	1159.671875	-192.552429
-7188.396170	3788.475833	1158.541992	-181.525833
-7188.396170	3788.475833	1157.413086	-184.109329
-7188.396170	3788.475833	1156.283203	-29.006790
-7188.396170	3788.475833	1155.154297	-46.463047
-7188.396170	3788.475833	1154.023438	-65.798584
-7188.396170	3788.475833	1152.893555	89.642548
-7188.396170	3788.475833	1151.763672	51.696716
-7188.396170	3788.475833	1150.632813	-100.726547
-7188.396170	3788.475833	1149.501953	-152.652496
-7188.396170	3788.475833	1148.370117	30.017790
-7188.396170	3788.475833	1147.239258	-92.266785
-7188.396170	3788.475833	1146.107422	-115.933128
-7188.396170	3788.475833	1144.975586	-47.444881
-7188.396170	3788.475833	1143.843750	-153.494614
-7188.396170	3788.475833	1142.710938	-124.908318
-7188.396170	3788.475833	1141.578125	-137.465912
-7188.396170	3788.475833	1140.445313	146.840195
-7188.396170	3788.475833	1139.312500	9.693438
-7188.396170	3788.475833	1138.178711	172.167160
-7188.396170	3788.475833	1137.045898	-21.533386
-7188.396170	3788.475833	1135.912109	-35.925377
-7188.396170	3788.475833	1134.777344	169.135483
-7188.396170	3788.475833	1133.643555	156.098724
-7188.396170	3788.475833	1132.508789	152.068146
-7188.396170	3788.475833	1131.374023	457.515045
-7188.396170	3788.475833	1130.239258	339.786896
-7188.396170	3788.475833	1129.104492	471.243927
-7188.396170	3788.475833	1127.968750	418.328461
-7188.396170	3788.475833	1126.833008	463.042175
-7188.396170	3788.475833	1125.697266	424.471832
-7188.396170	3788.475833	1124.560547	359.396606
-7188.396170	3788.475833	1123.424805	382.567322
-7188.396170	3788.475833	1122.288086	487.360809
-7188.396170	3788.475833	1121.151367	530.109924
-7188.396170	3788.475833	1120.013672	514.549805
-7188.396170	3788.475833	1118.876953	375.319183
-7188.396170	3788.475833	1117.739258	326.723419
-7188.396170	3788.475833	1116.601563	232.194153
-7188.396170	3788.475833	1115.462891	207.224197
-7188.396170	3788.475833	1114.324219	394.740417
-7188.396170	3788.475833	1113.186523	131.450058
-7188.396170	3788.475833	1112.046875	252.189041
-7188.396170	3788.475833	1110.908203	124.625206
-7188.396170	3788.475833	1109.769531	242.688812
-7188.396170	3788.475833	1108.629883	148.544434
-7188.396170	3788.475833	1107.490234	131.395493
-7188.396170	3788.475833	1106.349609	200.151596
-7188.396170	3788.475833	1105.209961	281.892731
-7188.396170	3788.475833	1104.069336	235.478195
-7188.396170	3788.475833	1102.928711	283.859619
-7188.396170	3788.475833	1101.787109	219.776566
-7188.396170	3788.475833	1100.646484	161.186249
-7188.396170	3788.475833	1099.504883	274.374481
-7188.396170	3788.475833	1098.363281	303.506927
-7188.396170	3788.475833	1097.221680	255.613770
-7188.396170	3788.475833	1096.079102	288.695282
-7188.396170	3788.475833	1094.936523	284.198364
-7188.396170	3788.475833	1093.793945	279.341797
-7188.396170	3788.475833	1092.651367	403.417542
-7188.396170	3788.475833	1091.507813	233.912064
-7188.396170	3788.475833	1090.364258	255.723587
-7188.396170	3788.475833	1089.220703	254.844330
-7188.396170	3788.475833	1088.077148	177.807510
-7188.396170	3788.475833	1086.933594	180.515472
-7188.396170	3788.475833	1085.789063	338.917419
-7188.396170	3788.475833	1084.644531	298.067047
-7188.396170	3788.475833	1083.499023	165.386185
-7188.396170	3788.475833	1082.354492	204.393570
-7188.396170	3788.475833	1081.208984	68.242317
-7188.396170	3788.475833	1080.063477	223.905243
-7188.396170	3788.475833	1078.917969	256.649933
-7188.396170	3788.475833	1077.771484	119.743813
-7188.396170	3788.475833	1076.625977	232.736176
-7188.396170	3788.475833	1075.479492	213.460571
-7188.396170	3788.475833	1074.332031	269.493134
-7188.396170	3788.475833	1073.185547	339.101135
-7188.396170	3788.475833	1072.038086	60.067169
-7188.396170	3788.475833	1070.890625	315.601593
-7188.396170	3788.475833	1069.743164	188.477936
-7188.396170	3788.475833	1068.594727	97.972145
-7188.396170	3788.475833	1067.447266	381.963135
-7188.396170	3788.475833	1066.298828	335.869995
-7188.396170	3788.475833	1065.149414	301.552032
-7188.396170	3788.475833	1064.000977	367.013397
-7188.396170	3788.475833	1062.851563	459.762756
-7188.396170	3788.475833	1061.702148	273.239319
-7188.396170	3788.475833	1060.552734	150.990967
-7188.396170	3788.475833	1059.402344	225.010300
-7188.396170	3788.475833	1058.252930	239.970673
-7188.396170	3788.475833	1057.102539	70.860031
-7188.396170	3788.475833	1055.951172	356.760437
-7188.396170	3788.475833	1054.800781	76.999695
-7188.396170	3788.475833	1053.649414	350.757996
-7188.396170	3788.475833	1052.498047	286.516724
-7188.396170	3788.475833	1051.346680	41.671482
-7188.396170	3788.475833	1050.194336	90.879715
-7188.396170	3788.475833	1049.042969	214.981247
-7188.396170	3788.475833	1047.890625	214.863998
-7188.396170	3788.475833	1046.738281	150.362045
-7188.396170	3788.475833	1045.584961	120.460831
-7188.396170	3788.475833	1044.431641	181.678070
-7188.396170	3788.475833	1043.278320	198.596924
-7188.396170	3788.475833	1042.125000	168.601318
-7188.396170	3788.475833	1040.971680	112.518593
-7188.396170	3788.475833	1039.817383	84.928772
-7188.396170	3788.475833	1038.663086	287.534302
-7188.396170	3788.475833	1037.508789	122.307037
-7188.396170	3788.475833	1036.353516	267.377716
-7188.396170	3788.475833	1035.198242	300.512390
-7188.396170	3788.475833	1034.042969	244.527588
-7188.396170	3788.475833	1032.887695	447.071930
-7188.396170	3788.475833	1031.732422	287.184692
-7188.396170	3788.475833	1030.576172	327.238678
-7188.396170	3788.475833	1029.419922	319.989319
-7188.396170	3788.475833	1028.263672	244.781494
-7188.396170	3788.475833	1027.106445	150.516312
-7188.396170	3788.475833	1025.949219	42.654327
-7188.396170	3788.475833	1024.792969	195.814423
-7188.396170	3788.475833	1023.634766	135.900513
-7188.396170	3788.475833	1022.477539	233.611603
-7188.396170	3788.475833	1021.319336	162.663589
-7188.396170	3788.475833	1020.161133	71.603119
-7188.396170	3788.475833	1019.002930	73.774124
-7188.396170	3788.475833	1017.843750	-44.393169
-7188.396170	3788.475833	1016.684570	-41.570808
-7188.396170	3788.475833	1015.525391	77.134003
-7188.396170	3788.475833	1014.366211	42.213661
-7188.396170	3788.475833	1013.207031	42.687908
-7188.396170	3788.475833	1012.046875	-37.512184
-7188.396170	3788.475833	1010.886719	114.786209
-7188.396170	3788.475833	1009.726563	103.940727
-7188.396170	3788.475833	1008.565430	246.938049
-7188.396170	3788.475833	1007.404297	34.862198
-7188.396170	3788.475833	1006.243164	-111.668442
-7188.396170	3788.475833	1005.082031	119.177414
-7188.396170	3788.475833	1003.920898	58.078693
-7188.396170	3788.475833	1002.758789	-6.983886
-7188.396170	3788.475833	1001.596680	156.665619
-7188.396170	3788.475833	1000.433594	99.199287
-7188.396170	3788.475833	999.271484	356.164246
-7188.396170	3788.475833	998.108398	68.804794
-7188.396170	3788.475833	996.945313	127.934669
-7188.396170	3788.475833	995.782227	64.519920
-7188.396170	3788.475833	994.618164	25.209095
-7188.396170	3788.475833	993.454102	29.373600
-7188.396170	3788.475833	992.290039	-1.325200
-7188.396170	3788.475833	991.125977	80.410782
-7188.396170	3788.475833	989.960938	133.507370
-7188.396170	3788.475833	988.796875	93.387039
-7188.396170	3788.475833	987.630859	181.791565
-7188.396170	3788.475833	986.465820	163.230637
-7188.396170	3788.475833	985.300781	101.542145
-7188.396170	3788.475833	984.134766	-103.973175
-7188.396170	3788.475833	982.968750	55.769161
-7188.396170	3788.475833	981.801758	60.053230
-7188.396170	3788.475833	980.635742	179.665070
-7188.396170	3788.475833	979.468750	166.906006
-7188.396170	3788.475833	978.301758	72.665268
-7188.396170	3788.475833	977.133789	123.590164
-7188.396170	3788.475833	975.966797	4.258858
-7188.396170	3788.475833	974.798828	-7.317512
-7188.396170	3788.475833	973.630859	-156.605103
-7188.396170	3788.475833	972.461914	-83.963524
-7188.396170	3788.475833	971.293945	218.934555
-7188.396170	3788.475833	970.125000	-102.852005
-7188.396170	3788.475833	968.956055	123.105225
-7188.396170	3788.475833	967.786133	-1.080764
-7188.396170	3788.475833	966.617188	-73.330574
-7188.396170	3788.475833	965.447266	122.413559
-7188.396170	3788.475833	964.276367	-51.797405
-7188.396170	3788.475833	963.106445	-124.957214
-7188.396170	3788.475833	961.935547	32.221287
-7188.396170	3788.475833	960.764648	76.807266
-7188.396170	3788.475833	959.593750	56.106609
-7188.396170	3788.475833	958.422852	-35.386311
-7188.396170	3788.475833	957.250977	-28.067429
-7188.396170	3788.475833	956.079102	204.009430
-7188.396170	3788.475833	954.907227	283.203857
-7188.396170	3788.475833	953.734375	-81.260033
-7188.396170	3788.475833	952.562500	-89.748756
-7188.396170	3788.475833	951.389648	51.216946
-7188.396170	3788.475833	950.215820	66.390190
-7188.396170	3788.475833	949.042969	61.800964
-7188.396170	3788.475833	947.869141	-231.978745
-7188.396170	3788.475833	946.695313	-167.508530
-7188.396170	3788.475833	945.521484	-73.242287
-7188.396170	3788.475833	944.346680	82.234436
-7188.396170	3788.475833	943.172852	-23.123432
-7188.396170	3788.475833	941.998047	120.186607
-7188.396170	3788.475833	940.822266	172.167664
-7188.396170	3788.475833	939.647461	-55.465527
-7188.396170	3788.475833	938.471680	127.994560
-7188.396170	3788.475833	937.295898	-52.697144
-7188.396170	3788.475833	936.119141	8.474315
-7188.396170	3788.475833	934.943359	154.534302
-7188.396170	3788.475833	933.766602	295.728333
-7188.396170	3788.475833	932.589844	115.000824
-7188.396170	3788.475833	931.413086	93.990639
-7188.396170	3788.475833	930.235352	89.435318
-7188.396170	3788.475833	929.057617	115.411148
-7188.396170	3788.475833	927.879883	287.024750
-7188.396170	3788.475833	926.702148	341.105438
-7188.396170	3788.475833	925.523438	43.035198
-7188.396170	3788.475833	924.344727	52.524147
-7188.396170	3788.475833	923.166016	80.798042
-7188.396170	3788.475833	921.987305	268.612915
-7188.396170	3788.475833	920.807617	322.625153
-7188.396170	3788.475833	919.627930	324.952118
-7188.396170	3788.475833	919.497070	-40.679070
-7188.396170	3788.475833	918.331055	-108.628609
-7188.396170	3788.475833	917.165039	-136.700363
-7188.396170	3788.475833	915.999023	36.840191
-7188.396170	3788.475833	914.833008	29.826214
-7188.396170	3788.475833	913.666016	-21.716839
-7188.396170	3788.475833	912.499023	-61.532913
-7188.396170	3788.475833	911.332031	146.951370
-7188.396170	3788.475833	910.165039	179.698059
-7188.396170	3788.475833	908.997070	76.621246
-7188.396170	3788.475833	907.830078	130.419495
-7188.396170	3788.475833	906.661133	-113.049988
-7188.396170	3788.475833	905.493164	29.670290
-7188.396170	3788.475833	904.325195	-204.341553
-7188.396170	3788.475833	903.156250	99.719170
-7188.396170	3788.475833	901.987305	55.199348
-7188.396170	3788.475833	900.818359	-220.782745
-7188.396170	3788.475833	899.648438	-267.570892
-7188.396170	3788.475833	898.478516	-181.130707
-7188.396170	3788.475833	897.308594	-87.723785
-7188.396170	3788.475833	896.138672	127.120659
-7188.396170	3788.475833	894.968750	276.468140
-7188.396170	3788.475833	893.797852	222.583206
-7188.396170	3788.475833	892.626953	266.772766
-7188.396170	3788.475833	891.456055	-4.191642
-7188.396170	3788.475833	890.284180	180.041428
-7188.396170	3788.475833	889.113281	23.523226
-7188.396170	3788.475833	887.941406	151.673325
-7188.396170	3788.475833	886.768555	331.077698
-7188.396170	3788.475833	885.596680	216.578659
-7188.396170	3788.475833	884.423828	204.704102
-7188.396170	3788.475833	883.250977	127.560768
-7188.396170	3788.475833	882.078125	183.279556
-7188.396170	3788.475833	880.905273	-164.121902
-7188.396170	3788.475833	879.731445	119.914734
-7188.396170	3788.475833	878.557617	91.735474
-7188.396170	3788.475833	877.383789	96.161629
-7188.396170	3788.475833	876.209961	-127.575325
-7188.396170	3788.475833	875.035156	-92.860420
-7188.396170	3788.475833	873.860352	41.901356
-7188.396170	3788.475833	872.685547	-144.479431
-7188.396170	3788.475833	871.510742	183.298004
-7188.396170	3788.475833	870.334961	127.193336
-7188.396170	3788.475833	869.159180	194.341599
-7188.396170	3788.475833	867.983398	96.398079
-7188.396170	3788.475833	866.807617	-20.107933
-7188.396170	3788.475833	865.630859	137.639618
-7188.396170	3788.475833	864.454102	-18.335526
-7188.396170	3788.475833	863.277344	25.512514
-7188.396170	3788.475833	862.100586	-60.717655
-7188.396170	3788.475833	860.922852	20.259714
-7188.396170	3788.475833	859.745117	-112.375381
-7188.396170	3788.475833	858.567383	17.304752
-7188.396170	3788.475833	857.389648	137.642853
-7188.396170	3788.475833	856.210938	97.845512
-7188.396170	3788.475833	855.032227	-11.528349
-7188.396170	3788.475833	853.853516	-16.508087
-7188.396170	3788.475833	852.674805	-19.173841
-7188.396170	3788.475833	851.495117	56.970993
-7188.396170	3788.475833	850.315430	79.771461
-7188.396170	3788.475833	849.135742	-27.206106
-7188.396170	3788.475833	847.956055	48.870251
-7188.396170	3788.475833	846.775391	64.688492
-7188.396170	3788.475833	845.595703	36.491573
-7188.396170	3788.475833	844.415039	-0.960717
-7188.396170	3788.475833	843.233398	-128.680222
-7188.396170	3788.475833	842.052734	-193.871216
-7188.396170	3788.475833	840.871094	48.695759
-7188.396170	3788.475833	839.689453	59.819866
-7188.396170	3788.475833	838.506836	-60.900848
-7188.396170	3788.475833	837.325195	-225.517319
-7188.396170	3788.475833	836.142578	-34.038425
-7188.396170	3788.475833	834.959961	-36.808556
-7188.396170	3788.475833	833.777344	-111.225296
-7188.396170	3788.475833	832.593750	-113.995346
-7188.396170	3788.475833	831.410156	81.887512
-7188.396170	3788.475833	830.226563	-36.415737
-7188.396170	3788.475833	829.042969	103.933640
-7188.396170	3788.475833	827.858398	1.816774
-7188.396170	3788.475833	826.673828	-252.602875
-7188.396170	3788.475833	825.489258	39.979237
-7188.396170	3788.475833	824.304688	-73.627502
-7188.396170	3788.475833	823.120117	98.829681
-7188.396170	3788.475833	821.934570	-47.049389
-7188.396170	3788.475833	820.749023	67.667328
-7188.396170	3788.475833	819.562500	-200.343216
-7188.396170	3788.475833	818.376953	57.231510
-7188.396170	3788.475833	817.190430	5.914529
-7188.396170	3788.475833	816.003906	157.343948
-7188.396170	3788.475833	814.817383	9.263701
-7188.396170	3788.475833	813.629883	-76.588760
-7188.396170	3788.475833	812.442383	81.635612
-7188.396170	3788.475833	811.254883	-213.695206
-7188.396170	3788.475833	810.067383	-71.642967
-7188.396170	3788.475833	808.878906	-26.301334
-7188.396170	3788.475833	807.690430	28.210030
-7188.396170	3788.475833	806.501953	-7.015345
-7188.396170	3788.475833	805.313477	-210.105606
-7188.396170	3788.475833	804.124023	-82.058800
-7188.396170	3788.475833	802.934570	-32.231846
-7188.396170	3788.475833	801.745117	-170.884750
-7188.396170	3788.475833	800.555664	-116.493332
-7188.396170	3788.475833	799.365234	-66.731461
-7188.396170	3788.475833	798.175781	-35.381035
-7188.396170	3788.475833	796.985352	-56.869648
-7188.396170	3788.475833	795.793945	61.675461
-7188.396170	3788.475833	794.603516	120.478317
-7188.396170	3788.475833	793.412109	117.282150
-7188.396170	3788.475833	792.220703	93.422470
-7188.396170	3788.475833	791.028320	-166.708298
-7188.396170	3788.475833	789.836914	-11.650669
-7188.396170	3788.475833	788.644531	-76.790451
-7188.396170	3788.475833	787.452148	-93.780373
-7188.396170	3788.475833	786.258789	-76.400902
-7188.396170	3788.475833	785.066406	176.972565
-7188.396170	3788.475833	783.873047	130.105453
-7188.396170	3788.475833	782.679688	39.719143
-7188.396170	3788.475833	781.485352	36.373878
-7188.396170	3788.475833	780.291992	-15.071231
-7188.396170	3788.475833	779.097656	-91.693649
-7188.396170	3788.475833	777.903320	-90.490723
-7188.396170	3788.475833	776.708008	-25.240149
-7188.396170	3788.475833	775.512695	-26.378695
-7188.396170	3788.475833	774.318359	-98.440720
-7188.396170	3788.475833	773.122070	138.212814
-7188.396170	3788.475833	771.926758	52.387608
-7188.396170	3788.475833	770.730469	32.863377
-7188.396170	3788.475833	769.534180	-23.237980
-7188.396170	3788.475833	768.337891	151.427002
-7188.396170	3788.475833	767.141602	106.700798
-7188.396170	3788.475833	765.944336	192.150269
-7188.396170	3788.475833	764.747070	81.170830
-7188.396170	3788.475833	763.549805	61.530724
-7188.396170	3788.475833	762.351563	215.340714
-7188.396170	3788.475833	761.154297	181.940887
-7188.396170	3788.475833	759.956055	185.034454
-7188.396170	3788.475833	758.757813	14.746429
-7188.396170	3788.475833	757.558594	38.349567
-7188.396170	3788.475833	756.359375	84.718903
-7188.396170	3788.475833	755.160156	188.031876
-7188.396170	3788.475833	753.960938	200.111420
-7188.396170	3788.475833	752.761719	11.640858
-7188.396170	3788.475833	751.561523	25.978781
-7188.396170	3788.475833	750.361328	65.337242
-7188.396170	3788.475833	749.160156	145.643173
-7188.396170	3788.475833	747.959961	-88.301941
-7188.396170	3788.475833	746.758789	246.887283
-7188.396170	3788.475833	745.557617	176.819458
-7188.396170	3788.475833	744.356445	102.202324
-7188.396170	3788.475833	743.154297	-52.031456
-7188.396170	3788.475833	741.952148	25.754158
-7188.396170	3788.475833	740.750000	-51.146198
-7188.396170	3788.475833	739.547852	-84.849014
-7188.396170	3788.475833	738.344727	-7.194166
-7188.396170	3788.475833	737.142578	88.577301
-7188.396170	3788.475833	735.939453	-115.623260
-7188.396170	3788.475833	734.735352	-94.889954
-7188.396170	3788.475833	733.532227	-130.972473
-7188.396170	3788.475833	732.328125	21.385124
-7188.396170	3788.475833	731.124023	-14.769763
-7188.396170	3788.475833	729.918945	1.258972
-7188.396170	3788.475833	728.714844	-130.244949
-7188.396170	3788.475833	727.509766	-5.367560
-7188.396170	3788.475833	726.303711	-57.493980
-7188.396170	3788.475833	725.098633	-21.190895
-7188.396170	3788.475833	723.892578	-25.747631
-7188.396170	3788.475833	722.686523	94.336540
-7188.396170	3788.475833	721.480469	46.630714
-7188.396170	3788.475833	720.274414	62.353405
-7188.396170	3788.475833	719.067383	116.546219
-7188.396170	3788.475833	717.860352	43.847702
-7188.396170	3788.475833	716.653320	11.905094
-7188.396170	3788.475833	715.445313	70.496254
-7188.396170	3788.475833	714.238281	24.908531
-7188.396170	3788.475833	713.030273	99.241798
-7188.396170	3788.475833	711.821289	49.070957
-7188.396170	3788.475833	710.613281	-16.949270
-7188.396170	3788.475833	709.404297	-128.210373
-7188.396170	3788.475833	708.195313	25.084642
-7188.396170	3788.475833	706.986328	-13.872983
-7188.396170	3788.475833	705.776367	134.739349
-7188.396170	3788.475833	704.566406	-195.793961
-7188.396170	3788.475833	703.356445	43.085545
-7188.396170	3788.475833	702.146484	-192.499268
-7188.396170	3788.475833	700.935547	-100.581345
-7188.396170	3788.475833	699.724609	210.261551
-7188.396170	3788.475833	698.513672	62.708012
-7188.396170	3788.475833	697.302734	-91.590736
-7188.396170	3788.475833	696.090820	-6.694122
-7188.396170	3788.475833	694.878906	-5.338914
-7188.396170	3788.475833	693.666992	203.472824
-7188.396170	3788.475833	692.455078	6.274188
-7188.396170	3788.475833	691.242188	124.739067
-7188.396170	3788.475833	690.029297	1.941374
-7188.396170	3788.475833	688.816406	43.660332
-7188.396170	3788.475833	687.602539	148.405701
-7188.396170	3788.475833	686.389648	205.765137
-7188.396170	3788.475833	685.175781	188.741623
-7188.396170	3788.475833	683.960938	286.516663
-7188.396170	3788.475833	682.747070	242.390045
-7188.396170	3788.475833	681.532227	261.260071
-7188.396170	3788.475833	680.317383	298.082855
-7188.396170	3788.475833	679.102539	460.833923
-7188.396170	3788.475833	677.886719	412.048248
-7188.396170	3788.475833	676.670898	239.561935
-7188.396170	3788.475833	675.455078	458.307587
-7188.396170	3788.475833	674.239258	216.122147
-7188.396170	3788.475833	673.022461	196.482880
-7188.396170	3788.475833	671.805664	241.971146
-7188.396170	3788.475833	670.588867	105.442474
-7188.396170	3788.475833	669.372070	173.309998
-7188.396170	3788.475833	668.154297	149.044067
-7188.396170	3788.475833	666.936523	-88.522812
-7188.396170	3788.475833	665.718750	221.626038
-7188.396170	3788.475833	664.500977	62.605000
-7188.396170	3788.475833	663.282227	-33.569775
-7188.396170	3788.475833	662.063477	112.506645
-7188.396170	3788.475833	660.844727	229.327560
-7188.396170	3788.475833	659.625000	377.449097
-7188.396170	3788.475833	658.405273	124.214813
-7188.396170	3788.475833	657.185547	-21.376108
-7188.396170	3788.475833	655.965820	261.029053
-7188.396170	3788.475833	654.745117	135.553741
-7188.396170	3788.475833	653.525391	204.952637
-7188.396170	3788.475833	652.303711	265.323120
-7188.396170	3788.475833	651.083008	251.751862
-7188.396170	3788.475833	649.861328	320.963959
-7188.396170	3788.475833	648.640625	253.602005
-7188.396170	3788.475833	647.417969	222.025879
-7188.396170	3788.475833	646.196289	-55.632523
-7188.396170	3788.475833	644.973633	64.873245
-7188.396170	3788.475833	643.750977	60.077621
-7188.396170	3788.475833	642.528320	86.544411
-7188.396170	3788.475833	641.305664	278.354980
-7188.396170	3788.475833	640.082031	172.852341
-7188.396170	3788.475833	638.858398	259.489075
-7188.396170	3788.475833	637.634766	160.665894
-7188.396170	3788.475833	636.410156	144.472855
-7188.396170	3788.475833	635.185547	320.260101
-7188.396170	3788.475833	633.960938	100.843483
-7188.396170	3788.475833	632.736328	129.204849
-7188.396170	3788.475833	631.510742	193.219330
-7188.396170	3788.475833	630.285156	156.789001
-7188.396170	3788.475833	629.059570	149.336182
-7188.396170	3788.475833	627.833984	126.246117
-7188.396170	3788.475833	626.607422	277.019867
-7188.396170	3788.475833	625.380859	338.544006
-7188.396170	3788.475833	624.154297	61.295639
-7188.396170	3788.475833	622.927734	-104.469849
-7188.396170	3788.475833	621.700195	-69.725075
-7188.396170	3788.475833	620.472656	87.459679
-7188.396170	3788.475833	619.245117	-29.311510
-7188.396170	3788.475833	618.016602	165.581482
-7188.396170	3788.475833	616.788086	55.463020
-7188.396170	3788.475833	615.559570	123.370796
-7188.396170	3788.475833	614.331055	157.855225
-7188.396170	3788.475833	613.101563	67.743469
-7188.396170	3788.475833	611.872070	35.461548
-7188.396170	3788.475833	610.642578	-74.643204
-7188.396170	3788.475833	609.413086	-69.142387
-7188.396170	3788.475833	608.182617	-10.335835
-7188.396170	3788.475833	606.952148	81.749489
-7188.396170	3788.475833	605.721680	-72.790985
-7188.396170	3788.475833	604.491211	-94.035645
-7188.396170	3788.475833	603.259766	311.015472
-7188.396170	3788.475833	602.028320	178.660690
-7188.396170	3788.475833	600.796875	21.929090
-7188.396170	3788.475833	599.564453	206.962250
-7188.396170	3788.475833	598.332031	72.438446
-7188.396170	3788.475833	597.099609	115.396561
-7188.396170	3788.475833	595.867188	-87.826675
-7188.396170	3788.475833	594.633789	30.493303
-7188.396170	3788.475833	593.400391	-13.062759
-7188.396170	3788.475833	592.166992	63.057716
-7188.396170	3788.475833	590.933594	39.428806
-7188.396170	3788.475833	589.699219	124.338577
-7188.396170	3788.475833	588.464844	122.828766
-7188.396170	3788.475833	587.230469	-93.471817
-7188.396170	3788.475833	585.995117	37.869419
-7188.396170	3788.475833	584.760742	3.152012
-7188.396170	3788.475833	583.525391	110.058662
-7188.396170	3788.475833	582.289063	31.074635
-7188.396170	3788.475833	581.053711	177.732910
-7188.396170	3788.475833	579.817383	162.888062
-7188.396170	3788.475833	578.581055	249.748962
-7188.396170	3788.475833	577.343750	111.099815
-7188.396170	3788.475833	576.107422	401.249023
-7188.396170	3788.475833	574.870117	191.920334
-7188.396170	3788.475833	573.631836	126.266068
-7188.396170	3788.475833	572.394531	162.237228
-7188.396170	3788.475833	571.156250	109.869133
-7188.396170	3788.475833	569.917969	79.602097
-7188.396170	3788.475833	568.679688	179.573822
-7188.396170	3788.475833	567.440430	25.736553
-7188.396170	3788.475833	566.202148	160.988541
-7188.396170	3788.475833	564.961914	155.015656
-7188.396170	3788.475833	563.722656	-14.134573
-7188.396170	3788.475833	562.482422	312.875031
-7188.396170	3788.475833	561.243164	183.460236
-7188.396170	3788.475833	560.001953	367.054077
-7188.396170	3788.475833	558.761719	193.635666
-7188.396170	3788.475833	557.520508	172.302979
-7188.396170	3788.475833	556.279297	25.453314
-7188.396170	3788.475833	555.038086	6.396274
-7188.396170	3788.475833	553.795898	187.697510
-7188.396170	3788.475833	552.554688	93.810707
-7188.396170	3788.475833	551.311523	-13.226325
-7188.396170	3788.475833	550.069336	300.022247
-7188.396170	3788.475833	548.826172	-117.120834
-7188.396170	3788.475833	547.583984	185.060699
-7188.396170	3788.475833	546.339844	115.552101
-7188.396170	3788.475833	545.096680	21.917860
-7188.396170	3788.475833	543.852539	71.198654
-7188.396170	3788.475833	542.608398	21.606039
-7188.396170	3788.475833	541.364258	29.177061
-7188.396170	3788.475833	540.119141	60.927723
-7188.396170	3788.475833	538.875000	55.365891
-7188.396170	3788.475833	537.628906	36.657898
-7188.396170	3788.475833	536.383789	72.862816
-7188.396170	3788.475833	535.137695	43.246174
-7188.396170	3788.475833	533.892578	105.822433
-7188.396170	3788.475833	532.645508	-0.500634
-7188.396170	3788.475833	531.399414	-1.476804
-7188.396170	3788.475833	530.152344	-105.472244
-7188.396170	3788.475833	528.905273	-34.020947
-7188.396170	3788.475833	527.658203	-21.738354
-7188.396170	3788.475833	526.410156	-118.985306
-7188.396170	3788.475833	525.163086	-3.655089
-7188.396170	3788.475833	523.914063	122.608780
-7188.396170	3788.475833	522.666016	47.404305
-7188.396170	3788.475833	521.416992	-97.788727
-7188.396170	3788.475833	520.167969	-48.076927
-7188.396170	3788.475833	518.918945	-81.502678
-7188.396170	3788.475833	517.669922	-163.005859
-7188.396170	3788.475833	516.419922	-32.257797
-7188.396170	3788.475833	515.169922	-30.552872
-7188.396170	3788.475833	513.919922	-120.636719
-7188.396170	3788.475833	512.668945	-140.689453
-7188.396170	3788.475833	511.417969	-18.632608
-7188.396170	3788.475833	510.166992	182.078110
-7188.396170	3788.475833	508.916016	114.042610
-7188.396170	3788.475833	507.664063	-174.514923
-7188.396170	3788.475833	506.412109	-155.011475
-7188.396170	3788.475833	505.160156	-113.639214
-7188.396170	3788.475833	503.907227	-362.541199
-7188.396170	3788.475833	502.655273	-32.998337
-7188.396170	3788.475833	501.402344	-85.362328
-7188.396170	3788.475833	500.148438	-157.290314
-7188.396170	3788.475833	498.895508	-87.388748
-7188.396170	3788.475833	497.641602	-268.212402
-7188.396170	3788.475833	496.387695	63.357170
-7188.396170	3788.475833	495.132813	-73.745041
-7188.396170	3788.475833	493.878906	-40.785198
-7188.396170	3788.475833	492.624023	37.950512
-7188.396170	3788.475833	491.368164	-177.334122
-7188.396170	3788.475833	490.113281	-85.450584
-7188.396170	3788.475833	488.857422	-67.584457
-7188.396170	3788.475833	487.601563	-106.275200
-7188.396170	3788.475833	486.344727	-127.499191
-7188.396170	3788.475833	485.088867	-244.402466
-7188.396170	3788.475833	483.832031	-108.893295
-7188.396170	3788.475833	482.575195	-16.898287
-7188.396170	3788.475833	481.317383	-44.489719
-7188.396170	3788.475833	480.059570	-52.467476
-7188.396170	3788.475833	478.801758	-1.726298
-7188.396170	3788.475833	477.543945	198.953247
-7188.396170	3788.475833	476.285156	184.513260
-7188.396170	3788.475833	475.027344	-146.985413
-7188.396170	3788.475833	473.767578	40.661186
-7188.396170	3788.475833	472.508789	-142.979721
-7188.396170	3788.475833	471.249023	-115.975914
-7188.396170	3788.475833	469.989258	95.493805
-7188.396170	3788.475833	468.729492	3.156949
-7188.396170	3788.475833	467.469727	17.165743
-7188.396170	3788.475833	466.208984	26.850315
-7188.396170	3788.475833	464.948242	30.043055
-7188.396170	3788.475833	463.686523	-23.111670
-7188.396170	3788.475833	462.425781	34.297039
-7188.396170	3788.475833	461.164063	184.859909
-7188.396170	3788.475833	459.901367	248.711853
-7188.396170	3788.475833	458.639648	258.394196
-7188.396170	3788.475833	457.376953	118.663292
-7188.396170	3788.475833	456.114258	273.414063
-7188.396170	3788.475833	454.851563	174.855072
-7188.396170	3788.475833	453.587891	-12.393829
-7188.396170	3788.475833	452.324219	101.148735
-7188.396170	3788.475833	451.060547	50.235809
-7188.396170	3788.475833	449.796875	103.126122
-7188.396170	3788.475833	448.532227	-21.322840
-7188.396170	3788.475833	447.267578	3.402895
-7188.396170	3788.475833	446.002930	21.600645
-7188.396170	3788.475833	444.737305	28.948587
-7188.396170	3788.475833	443.471680	161.540329
-7188.396170	3788.475833	442.206055	19.740040
-7188.396170	3788.475833	440.940430	152.175385
-7188.396170	3788.475833	439.673828	131.217010
-7188.396170	3788.475833	438.407227	136.103439
-7188.396170	3788.475833	437.140625	175.444168
-7188.396170	3788.475833	435.873047	180.170639
-7188.396170	3788.475833	434.605469	204.224976
-7188.396170	3788.475833	433.337891	264.840118
-7188.396170	3788.475833	432.070313	-71.371368
-7188.396170	3788.475833	430.801758	23.565763
-7188.396170	3788.475833	429.533203	45.079369
-7188.396170	3788.475833	428.264648	62.158321
-7188.396170	3788.475833	426.996094	115.725845
-7188.396170	3788.475833	425.726563	250.975601
-7188.396170	3788.475833	424.457031	159.939331
-7188.396170	3788.475833	423.186523	191.498444
-7188.396170	3788.475833	421.916992	123.883820
-7188.396170	3788.475833	420.646484	77.649002
-7188.396170	3788.475833	419.375977	304.478485
-7188.396170	3788.475833	418.104492	406.272583
-7188.396170	3788.475833	416.833008	97.101280
-7188.396170	3788.475833	415.561523	149.049515
-7188.396170	3788.475833	414.290039	138.425598
-7188.396170	3788.475833	413.017578	95.343933
-7188.396170	3788.475833	411.746094	99.316757
-7188.396170	3788.475833	410.472656	319.989929
-7188.396170	3788.475833	409.200195	374.946411
-7188.396170	3788.475833	407.926758	225.627213
-7188.396170	3788.475833	406.653320	134.051392
-7188.396170	3788.475833	405.379883	301.911835
-7188.396170	3788.475833	404.105469	171.128876
-7188.396170	3788.475833	402.831055	246.028778
-7188.396170	3788.475833	401.556641	399.920624
-7188.396170	3788.475833	400.282227	353.974426
-7188.396170	3788.475833	399.006836	95.436188
-7188.396170	3788.475833	397.731445	220.305603
-7188.396170	3788.475833	396.456055	128.290649
-7188.396170	3788.475833	395.179688	432.261322
-7188.396170	3788.475833	393.903320	11.675922
-7188.396170	3788.475833	392.626953	231.159302
-7188.396170	3788.475833	391.350586	246.687454
-7188.396170	3788.475833	390.073242	229.620514
-7188.396170	3788.475833	388.795898	242.032715
-7188.396170	3788.475833	387.518555	236.813858
-7188.396170	3788.475833	386.240234	295.239624
-7188.396170	3788.475833	384.961914	119.969955
-7188.396170	3788.475833	383.683594	10.499785
-7188.396170	3788.475833	382.405273	313.095062
-7188.396170	3788.475833	381.125977	272.965393
-7188.396170	3788.475833	379.846680	307.019592
-7188.396170	3788.475833	378.567383	-3.551991
-7188.396170	3788.475833	377.287109	153.109650
-7188.396170	3788.475833	376.006836	355.993347
-7188.396170	3788.475833	374.726563	20.046732
-7188.396170	3788.475833	373.446289	20.773529
-7188.396170	3788.475833	372.165039	1.519748
-7188.396170	3788.475833	370.883789	60.436348
-7188.396170	3788.475833	369.602539	152.648529
-7188.396170	3788.475833	368.320313	135.201935
-7188.396170	3788.475833	367.039063	-11.015476
-7188.396170	3788.475833	365.755859	-15.259858
-7188.396170	3788.475833	364.473633	79.772186
-7188.396170	3788.475833	363.190430	231.336502
-7188.396170	3788.475833	361.907227	-39.954632
-7188.396170	3788.475833	360.624023	56.351944
-7188.396170	3788.475833	359.340820	100.480309
-7188.396170	3788.475833	358.056641	71.121780
-7188.396170	3788.475833	356.772461	76.871483
-7188.396170	3788.475833	355.487305	36.782974
-7188.396170	3788.475833	354.202148	-136.356003
-7188.396170	3788.475833	352.916992	42.498581
-7188.396170	3788.475833	351.631836	-164.876511
-7188.396170	3788.475833	350.346680	92.226440
-7188.396170	3788.475833	349.060547	82.178177
-7188.396170	3788.475833	347.774414	102.686363
-7188.396170	3788.475833	346.487305	-31.197237
-7188.396170	3788.475833	345.200195	20.518677
-7188.396170	3788.475833	343.913086	0.682684
-7188.396170	3788.475833	342.625977	153.498093
-7188.396170	3788.475833	341.338867	145.504379
-7188.396170	3788.475833	340.050781	38.283970
-7188.396170	3788.475833	338.762695	-208.425247
-7188.396170	3788.475833	337.473633	-26.027361
-7188.396170	3788.475833	336.184570	-218.715485
-7188.396170	3788.475833	334.895508	-35.574364
-7188.396170	3788.475833	333.606445	77.864113
-7188.396170	3788.475833	332.317383	-139.128067
-7188.396170	3788.475833	331.027344	8.695177
-7188.396170	3788.475833	329.736328	-197.234222
-7188.396170	3788.475833	328.446289	-19.453867
-7188.396170	3788.475833	327.155273	12.167074
-7188.396170	3788.475833	325.864258	-34.519901
-7188.396170	3788.475833	324.573242	-83.304970
-7188.396170	3788.475833	323.281250	-322.662933
-7188.396170	3788.475833	321.989258	-136.703568
-7188.396170	3788.475833	320.697266	74.398186
-7188.396170	3788.475833	319.405273	-163.217194
-7188.396170	3788.475833	318.112305	-219.207352
-7188.396170	3788.475833	316.819336	-250.139404
-7188.396170	3788.475833	315.526367	-110.242241
-7188.396170	3788.475833	314.232422	14.278611
-7188.396170	3788.475833	312.938477	157.239059
-7188.396170	3788.475833	311.644531	113.669647
-7188.396170	3788.475833	310.349609	-34.082088
-7188.396170	3788.475833	309.054688	92.002396
-7188.396170	3788.475833	307.759766	-31.840818
-7188.396170	3788.475833	306.464844	176.983597
-7188.396170	3788.475833	305.168945	120.966995
-7188.396170	3788.475833	303.873047	74.535904
-7188.396170	3788.475833	302.577148	324.452911
-7188.396170	3788.475833	301.281250	358.049683
-7188.396170	3788.475833	299.984375	603.265991
