#X		#Y		#Wave		#Intensity
-7329.970426	4173.283833	1999.946289	-59.549625
-7329.970426	4173.283833	1998.981445	-92.927788
-7329.970426	4173.283833	1998.017578	-22.071264
-7329.970426	4173.283833	1997.052734	-100.276672
-7329.970426	4173.283833	1996.088867	16.951027
-7329.970426	4173.283833	1995.124023	69.404114
-7329.970426	4173.283833	1994.159180	84.376198
-7329.970426	4173.283833	1993.193359	-49.533192
-7329.970426	4173.283833	1992.228516	-198.532547
-7329.970426	4173.283833	1991.262695	-45.759827
-7329.970426	4173.283833	1990.296875	101.740967
-7329.970426	4173.283833	1989.331055	65.826553
-7329.970426	4173.283833	1988.365234	17.312412
-7329.970426	4173.283833	1987.398438	10.629060
-7329.970426	4173.283833	1986.432617	199.103851
-7329.970426	4173.283833	1985.465820	90.578789
-7329.970426	4173.283833	1984.499023	-27.996840
-7329.970426	4173.283833	1983.532227	-30.551888
-7329.970426	4173.283833	1982.565430	87.800011
-7329.970426	4173.283833	1981.597656	74.978096
-7329.970426	4173.283833	1980.629883	-68.932701
-7329.970426	4173.283833	1979.662109	229.157455
-7329.970426	4173.283833	1978.694336	42.986645
-7329.970426	4173.283833	1977.726563	-34.621353
-7329.970426	4173.283833	1976.758789	-102.459167
-7329.970426	4173.283833	1975.790039	229.415756
-7329.970426	4173.283833	1974.821289	-55.838684
-7329.970426	4173.283833	1973.852539	90.645432
-7329.970426	4173.283833	1972.883789	71.708496
-7329.970426	4173.283833	1971.915039	111.873322
-7329.970426	4173.283833	1970.945313	3.983378
-7329.970426	4173.283833	1969.975586	-42.315548
-7329.970426	4173.283833	1969.005859	209.571091
-7329.970426	4173.283833	1968.036133	239.503281
-7329.970426	4173.283833	1967.066406	109.209961
-7329.970426	4173.283833	1966.096680	158.740250
-7329.970426	4173.283833	1965.125977	190.953751
-7329.970426	4173.283833	1964.155273	264.973175
-7329.970426	4173.283833	1963.184570	178.894043
-7329.970426	4173.283833	1962.213867	-22.882704
-7329.970426	4173.283833	1961.242188	230.693207
-7329.970426	4173.283833	1960.271484	260.236176
-7329.970426	4173.283833	1959.299805	338.948578
-7329.970426	4173.283833	1958.328125	193.778534
-7329.970426	4173.283833	1957.356445	176.538391
-7329.970426	4173.283833	1956.384766	247.821533
-7329.970426	4173.283833	1955.412109	181.399979
-7329.970426	4173.283833	1954.439453	309.185211
-7329.970426	4173.283833	1953.467773	134.669586
-7329.970426	4173.283833	1952.495117	-5.377193
-7329.970426	4173.283833	1951.521484	63.446224
-7329.970426	4173.283833	1950.548828	-27.375134
-7329.970426	4173.283833	1949.575195	107.774826
-7329.970426	4173.283833	1948.601563	255.177795
-7329.970426	4173.283833	1947.627930	164.447479
-7329.970426	4173.283833	1946.654297	149.868317
-7329.970426	4173.283833	1945.680664	27.363342
-7329.970426	4173.283833	1944.706055	3.072565
-7329.970426	4173.283833	1943.732422	182.433762
-7329.970426	4173.283833	1942.757813	106.711128
-7329.970426	4173.283833	1941.783203	119.337616
-7329.970426	4173.283833	1940.807617	230.065323
-7329.970426	4173.283833	1939.833008	-95.481361
-7329.970426	4173.283833	1938.857422	253.067245
-7329.970426	4173.283833	1937.881836	52.703991
-7329.970426	4173.283833	1936.906250	16.608702
-7329.970426	4173.283833	1935.930664	83.457191
-7329.970426	4173.283833	1934.955078	214.015991
-7329.970426	4173.283833	1933.978516	87.506653
-7329.970426	4173.283833	1933.001953	274.445618
-7329.970426	4173.283833	1932.025391	-33.000454
-7329.970426	4173.283833	1931.048828	58.599617
-7329.970426	4173.283833	1930.072266	96.414246
-7329.970426	4173.283833	1929.094727	2.194184
-7329.970426	4173.283833	1928.118164	-42.996571
-7329.970426	4173.283833	1927.140625	-163.899139
-7329.970426	4173.283833	1926.163086	-23.095873
-7329.970426	4173.283833	1925.184570	149.502853
-7329.970426	4173.283833	1924.207031	60.637787
-7329.970426	4173.283833	1923.228516	-162.503143
-7329.970426	4173.283833	1922.250000	56.682613
-7329.970426	4173.283833	1921.271484	209.923309
-7329.970426	4173.283833	1920.292969	-29.966995
-7329.970426	4173.283833	1919.314453	-47.507275
-7329.970426	4173.283833	1918.334961	-165.045364
-7329.970426	4173.283833	1917.355469	247.157272
-7329.970426	4173.283833	1916.375977	83.414413
-7329.970426	4173.283833	1915.396484	107.675575
-7329.970426	4173.283833	1914.416992	-175.331528
-7329.970426	4173.283833	1913.436523	29.604992
-7329.970426	4173.283833	1912.457031	-36.099281
-7329.970426	4173.283833	1911.476563	-211.401657
-7329.970426	4173.283833	1910.496094	-13.627184
-7329.970426	4173.283833	1909.515625	-157.015198
-7329.970426	4173.283833	1908.534180	-93.166191
-7329.970426	4173.283833	1907.552734	-77.974976
-7329.970426	4173.283833	1906.572266	61.515789
-7329.970426	4173.283833	1905.590820	11.093652
-7329.970426	4173.283833	1904.608398	-48.967064
-7329.970426	4173.283833	1903.626953	-67.534081
-7329.970426	4173.283833	1902.644531	-110.352661
-7329.970426	4173.283833	1901.663086	-36.266552
-7329.970426	4173.283833	1900.680664	208.171600
-7329.970426	4173.283833	1899.698242	-53.340317
-7329.970426	4173.283833	1898.714844	74.437408
-7329.970426	4173.283833	1897.732422	95.266640
-7329.970426	4173.283833	1896.749023	-17.542444
-7329.970426	4173.283833	1895.765625	-88.908699
-7329.970426	4173.283833	1894.782227	51.254013
-7329.970426	4173.283833	1893.798828	-194.877396
-7329.970426	4173.283833	1892.814453	120.311073
-7329.970426	4173.283833	1891.831055	-28.434551
-7329.970426	4173.283833	1890.846680	60.924187
-7329.970426	4173.283833	1889.862305	-39.047878
-7329.970426	4173.283833	1888.877930	-15.110517
-7329.970426	4173.283833	1887.892578	30.731363
-7329.970426	4173.283833	1886.908203	-15.575002
-7329.970426	4173.283833	1885.922852	-158.838196
-7329.970426	4173.283833	1884.937500	105.523674
-7329.970426	4173.283833	1883.952148	-100.621376
-7329.970426	4173.283833	1882.965820	-25.360062
-7329.970426	4173.283833	1881.980469	-17.935448
-7329.970426	4173.283833	1880.994141	120.435287
-7329.970426	4173.283833	1880.007813	35.871651
-7329.970426	4173.283833	1879.021484	14.398761
-7329.970426	4173.283833	1878.035156	-19.115494
-7329.970426	4173.283833	1877.047852	129.090088
-7329.970426	4173.283833	1876.061523	90.844780
-7329.970426	4173.283833	1875.074219	59.934013
-7329.970426	4173.283833	1874.086914	-45.946064
-7329.970426	4173.283833	1873.098633	22.518646
-7329.970426	4173.283833	1872.111328	-56.587254
-7329.970426	4173.283833	1871.123047	-34.003326
-7329.970426	4173.283833	1870.135742	51.514935
-7329.970426	4173.283833	1869.147461	-109.619499
-7329.970426	4173.283833	1868.158203	179.079407
-7329.970426	4173.283833	1867.169922	201.803101
-7329.970426	4173.283833	1866.180664	19.121067
-7329.970426	4173.283833	1865.192383	25.041897
-7329.970426	4173.283833	1864.203125	57.580566
-7329.970426	4173.283833	1863.213867	123.968643
-7329.970426	4173.283833	1862.223633	-24.578964
-7329.970426	4173.283833	1861.234375	230.227203
-7329.970426	4173.283833	1860.244141	212.163193
-7329.970426	4173.283833	1859.253906	-32.754490
-7329.970426	4173.283833	1858.263672	190.644562
-7329.970426	4173.283833	1857.273438	37.582474
-7329.970426	4173.283833	1856.282227	251.299744
-7329.970426	4173.283833	1855.291992	209.298279
-7329.970426	4173.283833	1854.300781	119.109375
-7329.970426	4173.283833	1853.309570	286.969055
-7329.970426	4173.283833	1852.317383	223.369888
-7329.970426	4173.283833	1851.326172	289.970734
-7329.970426	4173.283833	1850.333984	101.138092
-7329.970426	4173.283833	1849.342773	259.334473
-7329.970426	4173.283833	1848.350586	376.540710
-7329.970426	4173.283833	1847.357422	274.560089
-7329.970426	4173.283833	1846.365234	146.148911
-7329.970426	4173.283833	1845.372070	140.582108
-7329.970426	4173.283833	1844.379883	106.149139
-7329.970426	4173.283833	1843.386719	151.158218
-7329.970426	4173.283833	1842.393555	-1.139259
-7329.970426	4173.283833	1841.399414	144.930161
-7329.970426	4173.283833	1840.406250	151.453705
-7329.970426	4173.283833	1839.412109	184.434006
-7329.970426	4173.283833	1838.417969	102.001396
-7329.970426	4173.283833	1837.423828	38.834095
-7329.970426	4173.283833	1836.429688	302.555695
-7329.970426	4173.283833	1835.434570	15.906081
-7329.970426	4173.283833	1834.440430	173.825027
-7329.970426	4173.283833	1833.445313	182.756683
-7329.970426	4173.283833	1832.450195	119.635086
-7329.970426	4173.283833	1831.454102	246.220673
-7329.970426	4173.283833	1830.458984	154.294067
-7329.970426	4173.283833	1829.462891	21.590448
-7329.970426	4173.283833	1828.466797	292.089813
-7329.970426	4173.283833	1827.470703	94.611107
-7329.970426	4173.283833	1826.474609	-33.237617
-7329.970426	4173.283833	1825.478516	277.860687
-7329.970426	4173.283833	1824.481445	121.224113
-7329.970426	4173.283833	1823.484375	-88.112587
-7329.970426	4173.283833	1822.487305	-64.871407
-7329.970426	4173.283833	1821.490234	35.034283
-7329.970426	4173.283833	1820.493164	288.238007
-7329.970426	4173.283833	1819.495117	45.415234
-7329.970426	4173.283833	1818.498047	-82.363922
-7329.970426	4173.283833	1817.500000	89.232262
-7329.970426	4173.283833	1816.500977	112.288460
-7329.970426	4173.283833	1815.502930	166.433533
-7329.970426	4173.283833	1814.504883	-88.220482
-7329.970426	4173.283833	1813.505859	6.568278
-7329.970426	4173.283833	1812.506836	-30.294966
-7329.970426	4173.283833	1811.507813	262.932800
-7329.970426	4173.283833	1810.508789	65.735840
-7329.970426	4173.283833	1809.508789	186.606918
-7329.970426	4173.283833	1808.508789	204.598877
-7329.970426	4173.283833	1807.508789	60.011475
-7329.970426	4173.283833	1806.508789	-51.098736
-7329.970426	4173.283833	1805.508789	79.123672
-7329.970426	4173.283833	1804.508789	-86.965851
-7329.970426	4173.283833	1803.507813	-78.673454
-7329.970426	4173.283833	1802.506836	-125.347366
-7329.970426	4173.283833	1801.505859	-124.292244
-7329.970426	4173.283833	1800.504883	5.625742
-7329.970426	4173.283833	1799.502930	116.358170
-7329.970426	4173.283833	1798.501953	405.972748
-7329.970426	4173.283833	1797.500000	292.239777
-7329.970426	4173.283833	1796.498047	-184.061737
-7329.970426	4173.283833	1795.496094	-188.026321
-7329.970426	4173.283833	1794.493164	225.233978
-7329.970426	4173.283833	1793.491211	-41.135464
-7329.970426	4173.283833	1792.488281	-45.268032
-7329.970426	4173.283833	1791.485352	5.362721
-7329.970426	4173.283833	1790.482422	74.985542
-7329.970426	4173.283833	1789.478516	156.440414
-7329.970426	4173.283833	1788.475586	180.655502
-7329.970426	4173.283833	1787.471680	47.644505
-7329.970426	4173.283833	1786.467773	50.336544
-7329.970426	4173.283833	1785.463867	-201.722168
-7329.970426	4173.283833	1784.459961	-91.995132
-7329.970426	4173.283833	1783.455078	0.977552
-7329.970426	4173.283833	1782.450195	60.553997
-7329.970426	4173.283833	1781.445313	-127.316177
-7329.970426	4173.283833	1780.440430	17.761007
-7329.970426	4173.283833	1779.435547	41.467628
-7329.970426	4173.283833	1778.429688	-20.473860
-7329.970426	4173.283833	1777.424805	-13.522638
-7329.970426	4173.283833	1776.418945	-28.021387
-7329.970426	4173.283833	1775.413086	-4.559742
-7329.970426	4173.283833	1774.406250	-14.425159
-7329.970426	4173.283833	1773.400391	-69.466927
-7329.970426	4173.283833	1772.393555	288.607666
-7329.970426	4173.283833	1771.386719	-56.226299
-7329.970426	4173.283833	1770.379883	-28.339266
-7329.970426	4173.283833	1769.373047	-190.375137
-7329.970426	4173.283833	1768.365234	141.103012
-7329.970426	4173.283833	1767.358398	2.694947
-7329.970426	4173.283833	1766.350586	25.555090
-7329.970426	4173.283833	1765.342773	57.827969
-7329.970426	4173.283833	1764.334961	-45.113609
-7329.970426	4173.283833	1763.326172	10.735439
-7329.970426	4173.283833	1762.318359	180.260727
-7329.970426	4173.283833	1761.309570	157.723587
-7329.970426	4173.283833	1760.300781	-16.489819
-7329.970426	4173.283833	1759.291016	155.113693
-7329.970426	4173.283833	1758.282227	25.833370
-7329.970426	4173.283833	1757.272461	166.453613
-7329.970426	4173.283833	1756.262695	-69.440910
-7329.970426	4173.283833	1755.252930	-54.426430
-7329.970426	4173.283833	1754.243164	121.428650
-7329.970426	4173.283833	1753.233398	107.879189
-7329.970426	4173.283833	1752.222656	-24.006723
-7329.970426	4173.283833	1751.211914	30.927303
-7329.970426	4173.283833	1750.201172	177.993790
-7329.970426	4173.283833	1749.190430	194.911530
-7329.970426	4173.283833	1748.179688	25.029230
-7329.970426	4173.283833	1747.167969	1.661846
-7329.970426	4173.283833	1746.156250	49.119473
-7329.970426	4173.283833	1745.144531	193.350479
-7329.970426	4173.283833	1744.132813	-49.885258
-7329.970426	4173.283833	1743.121094	181.551117
-7329.970426	4173.283833	1742.108398	207.426483
-7329.970426	4173.283833	1741.095703	4.257404
-7329.970426	4173.283833	1740.083008	81.948364
-7329.970426	4173.283833	1739.070313	289.323822
-7329.970426	4173.283833	1738.057617	208.738480
-7329.970426	4173.283833	1737.043945	330.964935
-7329.970426	4173.283833	1736.030273	170.089417
-7329.970426	4173.283833	1735.016602	127.102455
-7329.970426	4173.283833	1734.002930	39.277809
-7329.970426	4173.283833	1732.989258	217.755447
-7329.970426	4173.283833	1731.974609	56.767673
-7329.970426	4173.283833	1730.959961	223.263428
-7329.970426	4173.283833	1729.945313	318.966736
-7329.970426	4173.283833	1728.930664	440.477570
-7329.970426	4173.283833	1727.916016	222.811020
-7329.970426	4173.283833	1726.900391	28.703064
-7329.970426	4173.283833	1725.885742	241.813782
-7329.970426	4173.283833	1724.870117	31.183102
-7329.970426	4173.283833	1723.853516	192.318176
-7329.970426	4173.283833	1722.837891	296.880402
-7329.970426	4173.283833	1721.822266	250.819656
-7329.970426	4173.283833	1720.805664	211.765244
-7329.970426	4173.283833	1719.789063	97.435463
-7329.970426	4173.283833	1718.772461	63.012486
-7329.970426	4173.283833	1717.754883	89.643120
-7329.970426	4173.283833	1716.738281	-22.418707
-7329.970426	4173.283833	1715.720703	222.587799
-7329.970426	4173.283833	1714.703125	37.613689
-7329.970426	4173.283833	1713.685547	327.022858
-7329.970426	4173.283833	1712.667969	210.080536
-7329.970426	4173.283833	1711.649414	-97.021706
-7329.970426	4173.283833	1710.630859	126.364655
-7329.970426	4173.283833	1709.612305	218.207077
-7329.970426	4173.283833	1708.593750	180.925217
-7329.970426	4173.283833	1707.575195	31.016794
-7329.970426	4173.283833	1706.555664	237.579437
-7329.970426	4173.283833	1705.536133	293.949493
-7329.970426	4173.283833	1704.516602	169.737045
-7329.970426	4173.283833	1703.497070	286.940887
-7329.970426	4173.283833	1702.477539	64.259071
-7329.970426	4173.283833	1701.457031	183.681595
-7329.970426	4173.283833	1700.437500	408.430847
-7329.970426	4173.283833	1699.416992	162.288864
-7329.970426	4173.283833	1698.395508	318.945770
-7329.970426	4173.283833	1697.375000	377.177917
-7329.970426	4173.283833	1696.354492	510.246857
-7329.970426	4173.283833	1695.333008	170.484192
-7329.970426	4173.283833	1694.311523	-68.578789
-7329.970426	4173.283833	1693.290039	476.095886
-7329.970426	4173.283833	1692.267578	442.804596
-7329.970426	4173.283833	1691.246094	341.677795
-7329.970426	4173.283833	1690.223633	198.460754
-7329.970426	4173.283833	1689.201172	41.236752
-7329.970426	4173.283833	1688.178711	318.739075
-7329.970426	4173.283833	1687.155273	138.106842
-7329.970426	4173.283833	1686.132813	193.474701
-7329.970426	4173.283833	1685.109375	468.341614
-7329.970426	4173.283833	1684.085938	112.535156
-7329.970426	4173.283833	1683.062500	160.766251
-7329.970426	4173.283833	1682.039063	75.885429
-7329.970426	4173.283833	1681.014648	380.772888
-7329.970426	4173.283833	1679.990234	74.132355
-7329.970426	4173.283833	1678.965820	210.865173
-7329.970426	4173.283833	1677.941406	-242.634125
-7329.970426	4173.283833	1676.916992	367.483124
-7329.970426	4173.283833	1675.891602	270.822571
-7329.970426	4173.283833	1674.866211	43.624279
-7329.970426	4173.283833	1673.840820	-139.224075
-7329.970426	4173.283833	1672.815430	211.630096
-7329.970426	4173.283833	1671.790039	245.459290
-7329.970426	4173.283833	1670.763672	258.282257
-7329.970426	4173.283833	1669.737305	-71.284943
-7329.970426	4173.283833	1668.710938	162.771454
-7329.970426	4173.283833	1667.684570	289.626282
-7329.970426	4173.283833	1666.658203	239.514023
-7329.970426	4173.283833	1665.630859	219.651596
-7329.970426	4173.283833	1664.603516	451.074127
-7329.970426	4173.283833	1663.576172	649.826660
-7329.970426	4173.283833	1662.548828	678.701233
-7329.970426	4173.283833	1661.520508	644.759521
-7329.970426	4173.283833	1660.493164	764.277832
-7329.970426	4173.283833	1659.464844	1160.352173
-7329.970426	4173.283833	1658.436523	1477.247070
-7329.970426	4173.283833	1657.408203	1675.507813
-7329.970426	4173.283833	1656.378906	2071.148926
-7329.970426	4173.283833	1655.350586	2029.967407
-7329.970426	4173.283833	1654.321289	2678.508301
-7329.970426	4173.283833	1653.291992	3148.014160
-7329.970426	4173.283833	1652.261719	3498.939941
-7329.970426	4173.283833	1651.232422	3926.326660
-7329.970426	4173.283833	1650.202148	4279.287109
-7329.970426	4173.283833	1649.171875	4768.994629
-7329.970426	4173.283833	1648.141602	5149.495117
-7329.970426	4173.283833	1647.111328	5606.382813
-7329.970426	4173.283833	1646.080078	6072.366211
-7329.970426	4173.283833	1645.049805	6584.549316
-7329.970426	4173.283833	1644.018555	7038.588379
-7329.970426	4173.283833	1642.987305	7165.712402
-7329.970426	4173.283833	1641.955078	7651.909180
-7329.970426	4173.283833	1640.923828	7632.951172
-7329.970426	4173.283833	1639.891602	7623.267090
-7329.970426	4173.283833	1638.859375	7398.254883
-7329.970426	4173.283833	1637.827148	7536.813965
-7329.970426	4173.283833	1636.794922	7184.628418
-7329.970426	4173.283833	1635.761719	6936.726074
-7329.970426	4173.283833	1634.729492	6277.099121
-7329.970426	4173.283833	1633.696289	5738.028320
-7329.970426	4173.283833	1632.662109	5085.850586
-7329.970426	4173.283833	1631.628906	4646.694336
-7329.970426	4173.283833	1630.594727	4052.822510
-7329.970426	4173.283833	1629.561523	3600.213623
-7329.970426	4173.283833	1628.527344	3378.903320
-7329.970426	4173.283833	1627.493164	3266.303223
-7329.970426	4173.283833	1626.458008	2777.209717
-7329.970426	4173.283833	1625.423828	2523.931641
-7329.970426	4173.283833	1624.388672	2226.896973
-7329.970426	4173.283833	1623.353516	2006.198975
-7329.970426	4173.283833	1622.318359	2108.789063
-7329.970426	4173.283833	1621.282227	1807.479126
-7329.970426	4173.283833	1620.247070	1783.222534
-7329.970426	4173.283833	1619.210938	1772.844727
-7329.970426	4173.283833	1618.174805	1564.140991
-7329.970426	4173.283833	1617.137695	1643.813599
-7329.970426	4173.283833	1616.101563	1610.521118
-7329.970426	4173.283833	1615.064453	1830.849121
-7329.970426	4173.283833	1614.027344	1643.184814
-7329.970426	4173.283833	1612.990234	1418.765381
-7329.970426	4173.283833	1611.953125	1567.704224
-7329.970426	4173.283833	1610.916016	1601.455688
-7329.970426	4173.283833	1609.877930	1395.721802
-7329.970426	4173.283833	1608.839844	1284.517334
-7329.970426	4173.283833	1607.801758	1102.036865
-7329.970426	4173.283833	1606.763672	1310.953979
-7329.970426	4173.283833	1605.724609	1354.145264
-7329.970426	4173.283833	1604.685547	1068.364136
-7329.970426	4173.283833	1603.646484	1337.113892
-7329.970426	4173.283833	1602.607422	1283.832764
-7329.970426	4173.283833	1601.568359	1370.888184
-7329.970426	4173.283833	1600.528320	1209.671143
-7329.970426	4173.283833	1599.489258	1253.142578
-7329.970426	4173.283833	1598.449219	1186.341797
-7329.970426	4173.283833	1597.408203	1183.949463
-7329.970426	4173.283833	1596.368164	963.392029
-7329.970426	4173.283833	1595.327148	945.084045
-7329.970426	4173.283833	1594.287109	906.182068
-7329.970426	4173.283833	1593.246094	770.926086
-7329.970426	4173.283833	1592.204102	1106.326904
-7329.970426	4173.283833	1591.163086	1120.377686
-7329.970426	4173.283833	1590.121094	925.684998
-7329.970426	4173.283833	1589.079102	969.709595
-7329.970426	4173.283833	1588.037109	873.876160
-7329.970426	4173.283833	1586.995117	826.300964
-7329.970426	4173.283833	1585.953125	716.909668
-7329.970426	4173.283833	1584.910156	758.911560
-7329.970426	4173.283833	1583.867188	725.336487
-7329.970426	4173.283833	1582.824219	549.783997
-7329.970426	4173.283833	1581.781250	619.493225
-7329.970426	4173.283833	1580.737305	542.656189
-7329.970426	4173.283833	1579.693359	420.121674
-7329.970426	4173.283833	1578.649414	714.402344
-7329.970426	4173.283833	1577.605469	511.912994
-7329.970426	4173.283833	1576.561523	641.429871
-7329.970426	4173.283833	1575.516602	363.671692
-7329.970426	4173.283833	1574.472656	358.344086
-7329.970426	4173.283833	1573.427734	403.412140
-7329.970426	4173.283833	1572.381836	576.599487
-7329.970426	4173.283833	1571.336914	898.417847
-7329.970426	4173.283833	1570.291016	639.558411
-7329.970426	4173.283833	1569.246094	664.286499
-7329.970426	4173.283833	1568.200195	769.059998
-7329.970426	4173.283833	1567.153320	640.841919
-7329.970426	4173.283833	1566.107422	658.947815
-7329.970426	4173.283833	1565.060547	615.466980
-7329.970426	4173.283833	1564.013672	948.824097
-7329.970426	4173.283833	1562.966797	353.037506
-7329.970426	4173.283833	1561.919922	563.241638
-7329.970426	4173.283833	1560.872070	479.081024
-7329.970426	4173.283833	1559.825195	525.089050
-7329.970426	4173.283833	1558.777344	539.229858
-7329.970426	4173.283833	1557.729492	441.707947
-7329.970426	4173.283833	1556.680664	487.957214
-7329.970426	4173.283833	1555.632813	443.097168
-7329.970426	4173.283833	1554.583984	316.291931
-7329.970426	4173.283833	1553.535156	381.044373
-7329.970426	4173.283833	1552.486328	379.793549
-7329.970426	4173.283833	1551.436523	403.690552
-7329.970426	4173.283833	1550.387695	603.037537
-7329.970426	4173.283833	1549.337891	510.944824
-7329.970426	4173.283833	1548.288086	393.943024
-7329.970426	4173.283833	1547.238281	488.758331
-7329.970426	4173.283833	1546.187500	376.549042
-7329.970426	4173.283833	1545.136719	564.804565
-7329.970426	4173.283833	1544.086914	298.139801
-7329.970426	4173.283833	1543.035156	377.366180
-7329.970426	4173.283833	1541.984375	395.268982
-7329.970426	4173.283833	1540.933594	406.443207
-7329.970426	4173.283833	1539.881836	233.604279
-7329.970426	4173.283833	1538.830078	242.733170
-7329.970426	4173.283833	1537.778320	154.261948
-7329.970426	4173.283833	1536.725586	93.184639
-7329.970426	4173.283833	1535.673828	0.439341
-7329.970426	4173.283833	1534.621094	78.134857
-7329.970426	4173.283833	1533.568359	-14.365592
-7329.970426	4173.283833	1532.515625	93.015526
-7329.970426	4173.283833	1531.461914	0.755087
-7329.970426	4173.283833	1530.409180	-184.388550
-7329.970426	4173.283833	1529.355469	-81.260750
-7329.970426	4173.283833	1528.301758	-86.933388
-7329.970426	4173.283833	1527.247070	-292.043518
-7329.970426	4173.283833	1526.193359	38.072670
-7329.970426	4173.283833	1525.138672	-21.700951
-7329.970426	4173.283833	1524.083984	95.419739
-7329.970426	4173.283833	1523.029297	-68.353073
-7329.970426	4173.283833	1521.974609	-30.340422
-7329.970426	4173.283833	1520.918945	-307.052826
-7329.970426	4173.283833	1519.863281	32.377380
-7329.970426	4173.283833	1518.807617	-60.637493
-7329.970426	4173.283833	1517.751953	115.851990
-7329.970426	4173.283833	1516.696289	100.019867
-7329.970426	4173.283833	1515.639648	54.889259
-7329.970426	4173.283833	1514.583008	-80.600479
-7329.970426	4173.283833	1513.526367	188.923859
-7329.970426	4173.283833	1512.469727	-18.681116
-7329.970426	4173.283833	1511.412109	88.165695
-7329.970426	4173.283833	1510.355469	256.110199
-7329.970426	4173.283833	1509.297852	3.749130
-7329.970426	4173.283833	1508.240234	110.861000
-7329.970426	4173.283833	1507.181641	308.404236
-7329.970426	4173.283833	1506.124023	361.428162
-7329.970426	4173.283833	1505.065430	380.671906
-7329.970426	4173.283833	1504.006836	406.793365
-7329.970426	4173.283833	1502.948242	505.247711
-7329.970426	4173.283833	1501.888672	418.718414
-7329.970426	4173.283833	1500.830078	643.712708
-7329.970426	4173.283833	1499.770508	760.447205
-7329.970426	4173.283833	1498.710938	692.299011
-7329.970426	4173.283833	1497.650391	746.064331
-7329.970426	4173.283833	1496.590820	874.318787
-7329.970426	4173.283833	1495.530273	1189.729126
-7329.970426	4173.283833	1494.469727	1279.759766
-7329.970426	4173.283833	1493.409180	1651.520020
-7329.970426	4173.283833	1492.348633	1811.483398
-7329.970426	4173.283833	1491.287109	2180.966309
-7329.970426	4173.283833	1490.225586	2532.399414
-7329.970426	4173.283833	1489.164063	2719.449951
-7329.970426	4173.283833	1488.102539	3669.624268
-7329.970426	4173.283833	1487.041016	3784.581543
-7329.970426	4173.283833	1485.978516	4565.638184
-7329.970426	4173.283833	1484.916016	5411.328613
-7329.970426	4173.283833	1483.853516	5823.486328
-7329.970426	4173.283833	1482.791016	5920.315918
-7329.970426	4173.283833	1481.727539	6014.923340
-7329.970426	4173.283833	1480.664063	5617.311523
-7329.970426	4173.283833	1479.600586	5357.026367
-7329.970426	4173.283833	1478.537109	4719.500488
-7329.970426	4173.283833	1477.473633	4095.874268
-7329.970426	4173.283833	1476.409180	3510.745850
-7329.970426	4173.283833	1475.344727	3060.694580
-7329.970426	4173.283833	1474.280273	2597.495850
-7329.970426	4173.283833	1473.215820	2343.420654
-7329.970426	4173.283833	1472.151367	2141.317383
-7329.970426	4173.283833	1471.085938	1809.174072
-7329.970426	4173.283833	1470.020508	1979.422241
-7329.970426	4173.283833	1468.955078	1721.666992
-7329.970426	4173.283833	1467.888672	1562.567505
-7329.970426	4173.283833	1466.823242	1444.470703
-7329.970426	4173.283833	1465.756836	1203.381592
-7329.970426	4173.283833	1464.690430	1420.617920
-7329.970426	4173.283833	1463.624023	1410.112183
-7329.970426	4173.283833	1462.556641	954.637878
-7329.970426	4173.283833	1461.490234	1127.758911
-7329.970426	4173.283833	1460.422852	1396.806274
-7329.970426	4173.283833	1459.355469	1362.545654
-7329.970426	4173.283833	1458.287109	1262.689453
-7329.970426	4173.283833	1457.219727	1273.227417
-7329.970426	4173.283833	1456.151367	1317.021851
-7329.970426	4173.283833	1455.083008	1416.156006
-7329.970426	4173.283833	1454.014648	1444.999512
-7329.970426	4173.283833	1452.945313	1324.554565
-7329.970426	4173.283833	1451.876953	1190.494263
-7329.970426	4173.283833	1450.807617	1325.852783
-7329.970426	4173.283833	1449.738281	1345.009766
-7329.970426	4173.283833	1448.668945	1509.158081
-7329.970426	4173.283833	1447.598633	1443.370483
-7329.970426	4173.283833	1446.528320	1232.307739
-7329.970426	4173.283833	1445.458008	1287.576660
-7329.970426	4173.283833	1444.387695	1188.742188
-7329.970426	4173.283833	1443.317383	1274.455200
-7329.970426	4173.283833	1442.246094	1181.258423
-7329.970426	4173.283833	1441.174805	1111.820068
-7329.970426	4173.283833	1440.103516	1235.537964
-7329.970426	4173.283833	1439.032227	1065.342041
-7329.970426	4173.283833	1437.960938	997.069763
-7329.970426	4173.283833	1436.888672	1125.583618
-7329.970426	4173.283833	1435.816406	1260.399048
-7329.970426	4173.283833	1434.744141	1347.422363
-7329.970426	4173.283833	1433.670898	1313.106445
-7329.970426	4173.283833	1432.598633	1047.402344
-7329.970426	4173.283833	1431.525391	1137.872437
-7329.970426	4173.283833	1430.452148	1287.458374
-7329.970426	4173.283833	1429.378906	1095.983521
-7329.970426	4173.283833	1428.304688	967.887512
-7329.970426	4173.283833	1427.231445	1082.079346
-7329.970426	4173.283833	1426.157227	798.629150
-7329.970426	4173.283833	1425.083008	847.349060
-7329.970426	4173.283833	1424.007813	817.500061
-7329.970426	4173.283833	1422.933594	725.424316
-7329.970426	4173.283833	1421.858398	654.507874
-7329.970426	4173.283833	1420.783203	648.551758
-7329.970426	4173.283833	1419.708008	781.672485
-7329.970426	4173.283833	1418.631836	872.757324
-7329.970426	4173.283833	1417.555664	742.720276
-7329.970426	4173.283833	1416.479492	676.809753
-7329.970426	4173.283833	1415.403320	632.344177
-7329.970426	4173.283833	1414.327148	442.741821
-7329.970426	4173.283833	1413.250000	440.597382
-7329.970426	4173.283833	1412.173828	466.578461
-7329.970426	4173.283833	1411.096680	512.802185
-7329.970426	4173.283833	1410.018555	395.806976
-7329.970426	4173.283833	1408.941406	288.626251
-7329.970426	4173.283833	1407.863281	553.528870
-7329.970426	4173.283833	1406.785156	688.898743
-7329.970426	4173.283833	1405.707031	433.732147
-7329.970426	4173.283833	1404.628906	514.663940
-7329.970426	4173.283833	1403.549805	532.739624
-7329.970426	4173.283833	1402.470703	602.594849
-7329.970426	4173.283833	1401.391602	409.616394
-7329.970426	4173.283833	1400.312500	497.605164
-7329.970426	4173.283833	1399.233398	469.232239
-7329.970426	4173.283833	1398.153320	513.006226
-7329.970426	4173.283833	1397.073242	306.378845
-7329.970426	4173.283833	1395.993164	394.589386
-7329.970426	4173.283833	1394.913086	498.565704
-7329.970426	4173.283833	1393.832031	362.301086
-7329.970426	4173.283833	1392.750977	434.006683
-7329.970426	4173.283833	1391.669922	128.998932
-7329.970426	4173.283833	1390.588867	485.026001
-7329.970426	4173.283833	1389.506836	570.621460
-7329.970426	4173.283833	1388.425781	484.781891
-7329.970426	4173.283833	1387.343750	365.480682
-7329.970426	4173.283833	1386.261719	459.262573
-7329.970426	4173.283833	1385.178711	441.951263
-7329.970426	4173.283833	1384.096680	510.750092
-7329.970426	4173.283833	1383.013672	610.397339
-7329.970426	4173.283833	1381.930664	702.193481
-7329.970426	4173.283833	1380.846680	345.455566
-7329.970426	4173.283833	1379.763672	717.264343
-7329.970426	4173.283833	1378.679688	699.570557
-7329.970426	4173.283833	1377.595703	825.761230
-7329.970426	4173.283833	1376.511719	581.016968
-7329.970426	4173.283833	1375.427734	725.082092
-7329.970426	4173.283833	1374.342773	881.926270
-7329.970426	4173.283833	1373.257813	701.018433
-7329.970426	4173.283833	1372.172852	823.715942
-7329.970426	4173.283833	1371.087891	758.086243
-7329.970426	4173.283833	1370.001953	988.778992
-7329.970426	4173.283833	1368.916992	833.703979
-7329.970426	4173.283833	1367.831055	756.085266
-7329.970426	4173.283833	1366.744141	1020.414185
-7329.970426	4173.283833	1365.658203	880.355286
-7329.970426	4173.283833	1364.571289	661.458008
-7329.970426	4173.283833	1363.484375	1006.135132
-7329.970426	4173.283833	1362.397461	963.382813
-7329.970426	4173.283833	1361.310547	918.441223
-7329.970426	4173.283833	1360.222656	941.788452
-7329.970426	4173.283833	1359.135742	886.648132
-7329.970426	4173.283833	1358.047852	922.023193
-7329.970426	4173.283833	1356.958984	710.145325
-7329.970426	4173.283833	1355.871094	687.085510
-7329.970426	4173.283833	1354.782227	581.614563
-7329.970426	4173.283833	1353.693359	721.506226
-7329.970426	4173.283833	1352.604492	805.807434
-7329.970426	4173.283833	1351.515625	1062.866821
-7329.970426	4173.283833	1350.425781	975.379456
-7329.970426	4173.283833	1349.335938	1077.837769
-7329.970426	4173.283833	1348.246094	967.369812
-7329.970426	4173.283833	1347.156250	967.908997
-7329.970426	4173.283833	1346.066406	1188.035522
-7329.970426	4173.283833	1344.975586	1090.654541
-7329.970426	4173.283833	1343.884766	1277.965332
-7329.970426	4173.283833	1342.793945	1157.265869
-7329.970426	4173.283833	1341.702148	1135.956421
-7329.970426	4173.283833	1340.611328	1156.474731
-7329.970426	4173.283833	1339.519531	1135.330200
-7329.970426	4173.283833	1338.427734	857.586670
-7329.970426	4173.283833	1337.334961	798.663879
-7329.970426	4173.283833	1336.243164	798.576538
-7329.970426	4173.283833	1335.150391	848.885254
-7329.970426	4173.283833	1334.057617	725.334167
-7329.970426	4173.283833	1332.964844	572.171265
-7329.970426	4173.283833	1331.871094	514.518799
-7329.970426	4173.283833	1330.778320	530.609924
-7329.970426	4173.283833	1329.684570	491.786682
-7329.970426	4173.283833	1328.590820	285.476746
-7329.970426	4173.283833	1327.496094	317.019135
-7329.970426	4173.283833	1326.402344	432.623566
-7329.970426	4173.283833	1325.307617	94.569595
-7329.970426	4173.283833	1324.212891	236.819061
-7329.970426	4173.283833	1323.117188	269.800873
-7329.970426	4173.283833	1322.022461	341.112366
-7329.970426	4173.283833	1320.926758	350.126923
-7329.970426	4173.283833	1319.831055	301.492920
-7329.970426	4173.283833	1318.735352	98.394913
-7329.970426	4173.283833	1317.638672	228.703247
-7329.970426	4173.283833	1316.542969	133.264297
-7329.970426	4173.283833	1315.446289	117.055016
-7329.970426	4173.283833	1314.349609	149.478607
-7329.970426	4173.283833	1313.251953	20.035267
-7329.970426	4173.283833	1312.155273	137.377075
-7329.970426	4173.283833	1311.057617	217.562042
-7329.970426	4173.283833	1309.959961	-4.621877
-7329.970426	4173.283833	1308.862305	154.287323
-7329.970426	4173.283833	1307.763672	253.278122
-7329.970426	4173.283833	1306.665039	268.279144
-7329.970426	4173.283833	1305.566406	-8.177288
-7329.970426	4173.283833	1304.467773	185.474319
-7329.970426	4173.283833	1303.369141	311.236969
-7329.970426	4173.283833	1302.269531	318.467316
-7329.970426	4173.283833	1301.169922	173.280579
-7329.970426	4173.283833	1300.070313	408.004944
-7329.970426	4173.283833	1298.970703	449.793854
-7329.970426	4173.283833	1297.870117	641.064453
-7329.970426	4173.283833	1296.769531	667.646851
-7329.970426	4173.283833	1295.668945	698.402527
-7329.970426	4173.283833	1294.568359	800.960449
-7329.970426	4173.283833	1293.466797	870.525879
-7329.970426	4173.283833	1292.366211	1051.493408
-7329.970426	4173.283833	1291.264648	1092.429565
-7329.970426	4173.283833	1290.162109	1172.997559
-7329.970426	4173.283833	1289.060547	1312.129272
-7329.970426	4173.283833	1287.958008	1360.907593
-7329.970426	4173.283833	1286.855469	1466.260742
-7329.970426	4173.283833	1285.752930	1558.519653
-7329.970426	4173.283833	1284.650391	1649.405396
-7329.970426	4173.283833	1283.546875	1798.821167
-7329.970426	4173.283833	1282.444336	1778.729492
-7329.970426	4173.283833	1281.339844	1806.565308
-7329.970426	4173.283833	1280.236328	1723.176392
-7329.970426	4173.283833	1279.132813	1453.483398
-7329.970426	4173.283833	1278.028320	1387.798706
-7329.970426	4173.283833	1276.923828	1197.742065
-7329.970426	4173.283833	1275.819336	947.492371
-7329.970426	4173.283833	1274.713867	914.251526
-7329.970426	4173.283833	1273.608398	757.614868
-7329.970426	4173.283833	1272.503906	813.542114
-7329.970426	4173.283833	1271.397461	762.910950
-7329.970426	4173.283833	1270.291992	707.818726
-7329.970426	4173.283833	1269.185547	694.783264
-7329.970426	4173.283833	1268.080078	565.958252
-7329.970426	4173.283833	1266.972656	653.971985
-7329.970426	4173.283833	1265.866211	506.984802
-7329.970426	4173.283833	1264.759766	511.754181
-7329.970426	4173.283833	1263.652344	523.097046
-7329.970426	4173.283833	1262.544922	397.904022
-7329.970426	4173.283833	1261.436523	433.062286
-7329.970426	4173.283833	1260.329102	406.850067
-7329.970426	4173.283833	1259.220703	445.259216
-7329.970426	4173.283833	1258.112305	265.829926
-7329.970426	4173.283833	1257.003906	93.496117
-7329.970426	4173.283833	1255.895508	122.357727
-7329.970426	4173.283833	1254.786133	67.498032
-7329.970426	4173.283833	1253.676758	55.189846
-7329.970426	4173.283833	1252.567383	10.013597
-7329.970426	4173.283833	1251.458008	156.240158
-7329.970426	4173.283833	1250.347656	32.622597
-7329.970426	4173.283833	1249.237305	-20.272150
-7329.970426	4173.283833	1248.126953	-2.732756
-7329.970426	4173.283833	1247.016602	71.552696
-7329.970426	4173.283833	1245.905273	104.331268
-7329.970426	4173.283833	1244.793945	48.827320
-7329.970426	4173.283833	1243.682617	89.438736
-7329.970426	4173.283833	1242.571289	82.442314
-7329.970426	4173.283833	1241.459961	9.612903
-7329.970426	4173.283833	1240.347656	110.513763
-7329.970426	4173.283833	1239.235352	70.576569
-7329.970426	4173.283833	1238.123047	158.637711
-7329.970426	4173.283833	1237.009766	98.214439
-7329.970426	4173.283833	1235.897461	147.817566
-7329.970426	4173.283833	1234.784180	118.299431
-7329.970426	4173.283833	1233.670898	69.675011
-7329.970426	4173.283833	1232.556641	3.102978
-7329.970426	4173.283833	1231.443359	81.000816
-7329.970426	4173.283833	1230.329102	116.414856
-7329.970426	4173.283833	1229.214844	16.332930
-7329.970426	4173.283833	1228.099609	91.686996
-7329.970426	4173.283833	1226.985352	-50.364788
-7329.970426	4173.283833	1225.870117	79.911018
-7329.970426	4173.283833	1224.754883	111.498604
-7329.970426	4173.283833	1223.639648	52.092850
-7329.970426	4173.283833	1222.523438	-34.848141
-7329.970426	4173.283833	1221.408203	-67.461540
-7329.970426	4173.283833	1220.291992	-47.831776
-7329.970426	4173.283833	1219.174805	19.818930
-7329.970426	4173.283833	1218.058594	25.646725
-7329.970426	4173.283833	1216.941406	144.978012
-7329.970426	4173.283833	1215.824219	191.756454
-7329.970426	4173.283833	1214.707031	41.800053
-7329.970426	4173.283833	1213.589844	-33.577068
-7329.970426	4173.283833	1212.471680	-40.320568
-7329.970426	4173.283833	1211.353516	43.621868
-7329.970426	4173.283833	1210.235352	-24.144606
-7329.970426	4173.283833	1209.117188	43.409004
-7329.970426	4173.283833	1207.998047	80.838799
-7329.970426	4173.283833	1206.878906	13.175870
-7329.970426	4173.283833	1205.759766	-17.924789
-7329.970426	4173.283833	1204.640625	7.563892
-7329.970426	4173.283833	1203.520508	110.752510
-7329.970426	4173.283833	1202.401367	76.706146
-7329.970426	4173.283833	1201.281250	-45.446556
-7329.970426	4173.283833	1200.160156	-247.746063
-7329.970426	4173.283833	1199.040039	-163.494080
-7329.970426	4173.283833	1197.918945	-213.666824
-7329.970426	4173.283833	1196.797852	-101.987450
-7329.970426	4173.283833	1195.676758	-130.682755
-7329.970426	4173.283833	1194.555664	-158.049789
-7329.970426	4173.283833	1193.433594	-247.893478
-7329.970426	4173.283833	1192.311523	-219.349808
-7329.970426	4173.283833	1191.189453	-98.467796
-7329.970426	4173.283833	1190.066406	-116.819099
-7329.970426	4173.283833	1188.944336	-86.480637
-7329.970426	4173.283833	1187.821289	-54.333923
-7329.970426	4173.283833	1186.698242	-213.185501
-7329.970426	4173.283833	1185.574219	-113.747887
-7329.970426	4173.283833	1184.451172	-81.945137
-7329.970426	4173.283833	1183.327148	-70.332062
-7329.970426	4173.283833	1182.203125	-109.555748
-7329.970426	4173.283833	1181.078125	-45.178543
-7329.970426	4173.283833	1179.954102	-18.944281
-7329.970426	4173.283833	1178.829102	-72.953156
-7329.970426	4173.283833	1177.704102	-121.363701
-7329.970426	4173.283833	1176.579102	-33.012901
-7329.970426	4173.283833	1175.453125	137.681183
-7329.970426	4173.283833	1174.327148	-69.693687
-7329.970426	4173.283833	1173.201172	-33.231289
-7329.970426	4173.283833	1172.075195	34.406227
-7329.970426	4173.283833	1170.949219	104.109474
-7329.970426	4173.283833	1169.822266	109.961090
-7329.970426	4173.283833	1168.695313	163.460327
-7329.970426	4173.283833	1167.568359	326.169678
-7329.970426	4173.283833	1166.440430	481.733154
-7329.970426	4173.283833	1165.313477	188.929138
-7329.970426	4173.283833	1164.185547	351.159821
-7329.970426	4173.283833	1163.057617	365.701172
-7329.970426	4173.283833	1161.928711	325.672577
-7329.970426	4173.283833	1160.800781	465.747467
-7329.970426	4173.283833	1159.671875	296.234802
-7329.970426	4173.283833	1158.541992	206.651077
-7329.970426	4173.283833	1157.413086	103.620300
-7329.970426	4173.283833	1156.283203	69.810471
-7329.970426	4173.283833	1155.154297	-32.281055
-7329.970426	4173.283833	1154.023438	68.250511
-7329.970426	4173.283833	1152.893555	135.622650
-7329.970426	4173.283833	1151.763672	-25.361992
-7329.970426	4173.283833	1150.632813	58.244511
-7329.970426	4173.283833	1149.501953	-27.210728
-7329.970426	4173.283833	1148.370117	-208.412704
-7329.970426	4173.283833	1147.239258	-70.948105
-7329.970426	4173.283833	1146.107422	-171.947861
-7329.970426	4173.283833	1144.975586	-82.533310
-7329.970426	4173.283833	1143.843750	-4.926966
-7329.970426	4173.283833	1142.710938	-77.385384
-7329.970426	4173.283833	1141.578125	-16.771896
-7329.970426	4173.283833	1140.445313	-87.959373
-7329.970426	4173.283833	1139.312500	-84.536499
-7329.970426	4173.283833	1138.178711	-245.124298
-7329.970426	4173.283833	1137.045898	-44.591507
-7329.970426	4173.283833	1135.912109	86.691635
-7329.970426	4173.283833	1134.777344	-30.068779
-7329.970426	4173.283833	1133.643555	82.946396
-7329.970426	4173.283833	1132.508789	139.563843
-7329.970426	4173.283833	1131.374023	245.449158
-7329.970426	4173.283833	1130.239258	320.247101
-7329.970426	4173.283833	1129.104492	224.692322
-7329.970426	4173.283833	1127.968750	282.946472
-7329.970426	4173.283833	1126.833008	340.463501
-7329.970426	4173.283833	1125.697266	378.818878
-7329.970426	4173.283833	1124.560547	311.411438
-7329.970426	4173.283833	1123.424805	271.893463
-7329.970426	4173.283833	1122.288086	100.842598
-7329.970426	4173.283833	1121.151367	162.940643
-7329.970426	4173.283833	1120.013672	215.642883
-7329.970426	4173.283833	1118.876953	104.791534
-7329.970426	4173.283833	1117.739258	246.600510
-7329.970426	4173.283833	1116.601563	216.838791
-7329.970426	4173.283833	1115.462891	41.938976
-7329.970426	4173.283833	1114.324219	-61.426529
-7329.970426	4173.283833	1113.186523	77.299675
-7329.970426	4173.283833	1112.046875	37.787518
-7329.970426	4173.283833	1110.908203	71.564026
-7329.970426	4173.283833	1109.769531	1.216015
-7329.970426	4173.283833	1108.629883	5.248064
-7329.970426	4173.283833	1107.490234	202.752869
-7329.970426	4173.283833	1106.349609	79.080589
-7329.970426	4173.283833	1105.209961	73.180344
-7329.970426	4173.283833	1104.069336	63.138790
-7329.970426	4173.283833	1102.928711	135.155319
-7329.970426	4173.283833	1101.787109	263.451965
-7329.970426	4173.283833	1100.646484	22.548594
-7329.970426	4173.283833	1099.504883	250.961151
-7329.970426	4173.283833	1098.363281	272.764252
-7329.970426	4173.283833	1097.221680	254.000290
-7329.970426	4173.283833	1096.079102	123.263123
-7329.970426	4173.283833	1094.936523	450.151947
-7329.970426	4173.283833	1093.793945	207.380051
-7329.970426	4173.283833	1092.651367	257.476166
-7329.970426	4173.283833	1091.507813	36.349419
-7329.970426	4173.283833	1090.364258	-12.310942
-7329.970426	4173.283833	1089.220703	311.726959
-7329.970426	4173.283833	1088.077148	153.861938
-7329.970426	4173.283833	1086.933594	245.913788
-7329.970426	4173.283833	1085.789063	256.288483
-7329.970426	4173.283833	1084.644531	145.197968
-7329.970426	4173.283833	1083.499023	231.686813
-7329.970426	4173.283833	1082.354492	97.850761
-7329.970426	4173.283833	1081.208984	273.595825
-7329.970426	4173.283833	1080.063477	54.901749
-7329.970426	4173.283833	1078.917969	384.661560
-7329.970426	4173.283833	1077.771484	124.152039
-7329.970426	4173.283833	1076.625977	96.110962
-7329.970426	4173.283833	1075.479492	404.504486
-7329.970426	4173.283833	1074.332031	365.720581
-7329.970426	4173.283833	1073.185547	335.122375
-7329.970426	4173.283833	1072.038086	339.084869
-7329.970426	4173.283833	1070.890625	184.308945
-7329.970426	4173.283833	1069.743164	288.927856
-7329.970426	4173.283833	1068.594727	230.586182
-7329.970426	4173.283833	1067.447266	330.125031
-7329.970426	4173.283833	1066.298828	305.278351
-7329.970426	4173.283833	1065.149414	297.097260
-7329.970426	4173.283833	1064.000977	591.660461
-7329.970426	4173.283833	1062.851563	456.205536
-7329.970426	4173.283833	1061.702148	478.301880
-7329.970426	4173.283833	1060.552734	157.854233
-7329.970426	4173.283833	1059.402344	333.609436
-7329.970426	4173.283833	1058.252930	404.472717
-7329.970426	4173.283833	1057.102539	362.856079
-7329.970426	4173.283833	1055.951172	356.320496
-7329.970426	4173.283833	1054.800781	175.514557
-7329.970426	4173.283833	1053.649414	261.941895
-7329.970426	4173.283833	1052.498047	188.501266
-7329.970426	4173.283833	1051.346680	55.040844
-7329.970426	4173.283833	1050.194336	111.576668
-7329.970426	4173.283833	1049.042969	202.624893
-7329.970426	4173.283833	1047.890625	218.036469
-7329.970426	4173.283833	1046.738281	212.422272
-7329.970426	4173.283833	1045.584961	308.833344
-7329.970426	4173.283833	1044.431641	171.445145
-7329.970426	4173.283833	1043.278320	120.690720
-7329.970426	4173.283833	1042.125000	182.836197
-7329.970426	4173.283833	1040.971680	75.826370
-7329.970426	4173.283833	1039.817383	63.314705
-7329.970426	4173.283833	1038.663086	328.449432
-7329.970426	4173.283833	1037.508789	14.756376
-7329.970426	4173.283833	1036.353516	-15.779046
-7329.970426	4173.283833	1035.198242	-3.219460
-7329.970426	4173.283833	1034.042969	202.366272
-7329.970426	4173.283833	1032.887695	280.561615
-7329.970426	4173.283833	1031.732422	285.781128
-7329.970426	4173.283833	1030.576172	148.786392
-7329.970426	4173.283833	1029.419922	208.732712
-7329.970426	4173.283833	1028.263672	426.806091
-7329.970426	4173.283833	1027.106445	291.534607
-7329.970426	4173.283833	1025.949219	41.100086
-7329.970426	4173.283833	1024.792969	126.644302
-7329.970426	4173.283833	1023.634766	232.412582
-7329.970426	4173.283833	1022.477539	58.922241
-7329.970426	4173.283833	1021.319336	123.501289
-7329.970426	4173.283833	1020.161133	-214.453552
-7329.970426	4173.283833	1019.002930	-47.500412
-7329.970426	4173.283833	1017.843750	10.030168
-7329.970426	4173.283833	1016.684570	138.626801
-7329.970426	4173.283833	1015.525391	-52.073360
-7329.970426	4173.283833	1014.366211	166.437943
-7329.970426	4173.283833	1013.207031	332.393585
-7329.970426	4173.283833	1012.046875	5.798825
-7329.970426	4173.283833	1010.886719	-67.986519
-7329.970426	4173.283833	1009.726563	195.627823
-7329.970426	4173.283833	1008.565430	69.193924
-7329.970426	4173.283833	1007.404297	67.347054
-7329.970426	4173.283833	1006.243164	23.272192
-7329.970426	4173.283833	1005.082031	329.003937
-7329.970426	4173.283833	1003.920898	16.587654
-7329.970426	4173.283833	1002.758789	58.419994
-7329.970426	4173.283833	1001.596680	-64.748444
-7329.970426	4173.283833	1000.433594	20.249475
-7329.970426	4173.283833	999.271484	-128.245499
-7329.970426	4173.283833	998.108398	-27.629999
-7329.970426	4173.283833	996.945313	-14.537148
-7329.970426	4173.283833	995.782227	7.491449
-7329.970426	4173.283833	994.618164	128.760513
-7329.970426	4173.283833	993.454102	27.765871
-7329.970426	4173.283833	992.290039	53.772541
-7329.970426	4173.283833	991.125977	-37.449566
-7329.970426	4173.283833	989.960938	-87.963005
-7329.970426	4173.283833	988.796875	155.287140
-7329.970426	4173.283833	987.630859	-39.912979
-7329.970426	4173.283833	986.465820	-230.197433
-7329.970426	4173.283833	985.300781	-56.497944
-7329.970426	4173.283833	984.134766	133.926544
-7329.970426	4173.283833	982.968750	384.064148
-7329.970426	4173.283833	981.801758	-104.705406
-7329.970426	4173.283833	980.635742	-64.015541
-7329.970426	4173.283833	979.468750	47.167191
-7329.970426	4173.283833	978.301758	57.755760
-7329.970426	4173.283833	977.133789	-72.208107
-7329.970426	4173.283833	975.966797	20.696012
-7329.970426	4173.283833	974.798828	-117.456581
-7329.970426	4173.283833	973.630859	18.814489
-7329.970426	4173.283833	972.461914	27.875105
-7329.970426	4173.283833	971.293945	95.065697
-7329.970426	4173.283833	970.125000	18.519049
-7329.970426	4173.283833	968.956055	-132.831299
-7329.970426	4173.283833	967.786133	-17.461317
-7329.970426	4173.283833	966.617188	19.377684
-7329.970426	4173.283833	965.447266	-43.641582
-7329.970426	4173.283833	964.276367	-17.301107
-7329.970426	4173.283833	963.106445	83.396896
-7329.970426	4173.283833	961.935547	-124.174751
-7329.970426	4173.283833	960.764648	80.707581
-7329.970426	4173.283833	959.593750	-81.527153
-7329.970426	4173.283833	958.422852	-54.451962
-7329.970426	4173.283833	957.250977	-38.636734
-7329.970426	4173.283833	956.079102	-202.827545
-7329.970426	4173.283833	954.907227	117.354729
-7329.970426	4173.283833	953.734375	-52.447937
-7329.970426	4173.283833	952.562500	107.305359
-7329.970426	4173.283833	951.389648	-52.257927
-7329.970426	4173.283833	950.215820	44.129959
-7329.970426	4173.283833	949.042969	49.762878
-7329.970426	4173.283833	947.869141	-66.340172
-7329.970426	4173.283833	946.695313	109.999565
-7329.970426	4173.283833	945.521484	165.869171
-7329.970426	4173.283833	944.346680	-13.527956
-7329.970426	4173.283833	943.172852	273.691925
-7329.970426	4173.283833	941.998047	81.499863
-7329.970426	4173.283833	940.822266	26.119598
-7329.970426	4173.283833	939.647461	8.585323
-7329.970426	4173.283833	938.471680	140.195145
-7329.970426	4173.283833	937.295898	173.413986
-7329.970426	4173.283833	936.119141	54.199986
-7329.970426	4173.283833	934.943359	176.306137
-7329.970426	4173.283833	933.766602	47.646667
-7329.970426	4173.283833	932.589844	290.412079
-7329.970426	4173.283833	931.413086	215.599548
-7329.970426	4173.283833	930.235352	458.177887
-7329.970426	4173.283833	929.057617	376.924561
-7329.970426	4173.283833	927.879883	108.569115
-7329.970426	4173.283833	926.702148	157.508102
-7329.970426	4173.283833	925.523438	6.542354
-7329.970426	4173.283833	924.344727	229.877991
-7329.970426	4173.283833	923.166016	136.004349
-7329.970426	4173.283833	921.987305	175.308167
-7329.970426	4173.283833	920.807617	220.924210
-7329.970426	4173.283833	919.627930	220.858414
-7329.970426	4173.283833	919.497070	184.091400
-7329.970426	4173.283833	918.331055	169.450317
-7329.970426	4173.283833	917.165039	-76.459274
-7329.970426	4173.283833	915.999023	190.838226
-7329.970426	4173.283833	914.833008	109.677780
-7329.970426	4173.283833	913.666016	98.195053
-7329.970426	4173.283833	912.499023	93.039536
-7329.970426	4173.283833	911.332031	37.241489
-7329.970426	4173.283833	910.165039	76.381958
-7329.970426	4173.283833	908.997070	298.981323
-7329.970426	4173.283833	907.830078	-16.206329
-7329.970426	4173.283833	906.661133	158.871353
-7329.970426	4173.283833	905.493164	-178.308746
-7329.970426	4173.283833	904.325195	116.829391
-7329.970426	4173.283833	903.156250	-96.970299
-7329.970426	4173.283833	901.987305	55.828400
-7329.970426	4173.283833	900.818359	37.968594
-7329.970426	4173.283833	899.648438	187.501801
-7329.970426	4173.283833	898.478516	-38.805286
-7329.970426	4173.283833	897.308594	-18.776966
-7329.970426	4173.283833	896.138672	-61.894764
-7329.970426	4173.283833	894.968750	128.524826
-7329.970426	4173.283833	893.797852	-6.122990
-7329.970426	4173.283833	892.626953	67.471451
-7329.970426	4173.283833	891.456055	207.257278
-7329.970426	4173.283833	890.284180	233.459717
-7329.970426	4173.283833	889.113281	237.575211
-7329.970426	4173.283833	887.941406	147.119766
-7329.970426	4173.283833	886.768555	34.631336
-7329.970426	4173.283833	885.596680	82.863205
-7329.970426	4173.283833	884.423828	181.463165
-7329.970426	4173.283833	883.250977	194.980148
-7329.970426	4173.283833	882.078125	-118.984406
-7329.970426	4173.283833	880.905273	-61.360355
-7329.970426	4173.283833	879.731445	8.818641
-7329.970426	4173.283833	878.557617	277.205048
-7329.970426	4173.283833	877.383789	391.309479
-7329.970426	4173.283833	876.209961	193.952026
-7329.970426	4173.283833	875.035156	125.601921
-7329.970426	4173.283833	873.860352	230.198761
-7329.970426	4173.283833	872.685547	-108.501762
-7329.970426	4173.283833	871.510742	27.505997
-7329.970426	4173.283833	870.334961	-43.946487
-7329.970426	4173.283833	869.159180	-14.849293
-7329.970426	4173.283833	867.983398	287.488800
-7329.970426	4173.283833	866.807617	228.550949
-7329.970426	4173.283833	865.630859	81.710587
-7329.970426	4173.283833	864.454102	182.902451
-7329.970426	4173.283833	863.277344	20.412453
-7329.970426	4173.283833	862.100586	228.232574
-7329.970426	4173.283833	860.922852	181.844528
-7329.970426	4173.283833	859.745117	25.684092
-7329.970426	4173.283833	858.567383	142.391647
-7329.970426	4173.283833	857.389648	92.870285
-7329.970426	4173.283833	856.210938	124.851669
-7329.970426	4173.283833	855.032227	247.688583
-7329.970426	4173.283833	853.853516	60.264576
-7329.970426	4173.283833	852.674805	-20.588575
-7329.970426	4173.283833	851.495117	-10.598245
-7329.970426	4173.283833	850.315430	-0.628413
-7329.970426	4173.283833	849.135742	-90.860977
-7329.970426	4173.283833	847.956055	-24.572573
-7329.970426	4173.283833	846.775391	-139.834381
-7329.970426	4173.283833	845.595703	-89.241165
-7329.970426	4173.283833	844.415039	8.233888
-7329.970426	4173.283833	843.233398	61.865856
-7329.970426	4173.283833	842.052734	-18.996588
-7329.970426	4173.283833	840.871094	225.279724
-7329.970426	4173.283833	839.689453	144.378769
-7329.970426	4173.283833	838.506836	54.115936
-7329.970426	4173.283833	837.325195	-20.507622
-7329.970426	4173.283833	836.142578	-85.750481
-7329.970426	4173.283833	834.959961	20.777443
-7329.970426	4173.283833	833.777344	-35.121410
-7329.970426	4173.283833	832.593750	-75.410042
-7329.970426	4173.283833	831.410156	-50.161209
-7329.970426	4173.283833	830.226563	40.584743
-7329.970426	4173.283833	829.042969	-46.556259
-7329.970426	4173.283833	827.858398	50.344311
-7329.970426	4173.283833	826.673828	-58.636841
-7329.970426	4173.283833	825.489258	84.948235
-7329.970426	4173.283833	824.304688	331.318970
-7329.970426	4173.283833	823.120117	32.167431
-7329.970426	4173.283833	821.934570	47.822468
-7329.970426	4173.283833	820.749023	-148.392059
-7329.970426	4173.283833	819.562500	44.777424
-7329.970426	4173.283833	818.376953	75.915611
-7329.970426	4173.283833	817.190430	159.942062
-7329.970426	4173.283833	816.003906	63.373116
-7329.970426	4173.283833	814.817383	-36.294476
-7329.970426	4173.283833	813.629883	-36.383377
-7329.970426	4173.283833	812.442383	290.132538
-7329.970426	4173.283833	811.254883	44.223721
-7329.970426	4173.283833	810.067383	-80.340637
-7329.970426	4173.283833	808.878906	62.479031
-7329.970426	4173.283833	807.690430	-68.309601
-7329.970426	4173.283833	806.501953	145.865433
-7329.970426	4173.283833	805.313477	108.264603
-7329.970426	4173.283833	804.124023	-16.325569
-7329.970426	4173.283833	802.934570	57.867332
-7329.970426	4173.283833	801.745117	17.115492
-7329.970426	4173.283833	800.555664	106.733070
-7329.970426	4173.283833	799.365234	-14.768861
-7329.970426	4173.283833	798.175781	53.036903
-7329.970426	4173.283833	796.985352	-62.258896
-7329.970426	4173.283833	795.793945	-81.384140
-7329.970426	4173.283833	794.603516	8.008456
-7329.970426	4173.283833	793.412109	16.718479
-7329.970426	4173.283833	792.220703	174.186539
-7329.970426	4173.283833	791.028320	235.480209
-7329.970426	4173.283833	789.836914	-3.842114
-7329.970426	4173.283833	788.644531	150.336380
-7329.970426	4173.283833	787.452148	143.359726
-7329.970426	4173.283833	786.258789	-30.866722
-7329.970426	4173.283833	785.066406	237.674667
-7329.970426	4173.283833	783.873047	128.436447
-7329.970426	4173.283833	782.679688	204.892639
-7329.970426	4173.283833	781.485352	160.612579
-7329.970426	4173.283833	780.291992	20.421741
-7329.970426	4173.283833	779.097656	-88.818352
-7329.970426	4173.283833	777.903320	21.493420
-7329.970426	4173.283833	776.708008	14.245630
-7329.970426	4173.283833	775.512695	115.145912
-7329.970426	4173.283833	774.318359	-117.771820
-7329.970426	4173.283833	773.122070	13.936749
-7329.970426	4173.283833	771.926758	49.799576
-7329.970426	4173.283833	770.730469	-115.128815
-7329.970426	4173.283833	769.534180	303.539063
-7329.970426	4173.283833	768.337891	157.075500
-7329.970426	4173.283833	767.141602	192.731308
-7329.970426	4173.283833	765.944336	49.361629
-7329.970426	4173.283833	764.747070	-44.624409
-7329.970426	4173.283833	763.549805	-70.751373
-7329.970426	4173.283833	762.351563	72.702034
-7329.970426	4173.283833	761.154297	0.240022
-7329.970426	4173.283833	759.956055	-96.891945
-7329.970426	4173.283833	758.757813	-123.139061
-7329.970426	4173.283833	757.558594	-106.278160
-7329.970426	4173.283833	756.359375	-209.604965
-7329.970426	4173.283833	755.160156	-91.171341
-7329.970426	4173.283833	753.960938	88.759933
-7329.970426	4173.283833	752.761719	166.981735
-7329.970426	4173.283833	751.561523	180.492523
-7329.970426	4173.283833	750.361328	160.107101
-7329.970426	4173.283833	749.160156	136.611969
-7329.970426	4173.283833	747.959961	-86.855118
-7329.970426	4173.283833	746.758789	372.478088
-7329.970426	4173.283833	745.557617	69.029068
-7329.970426	4173.283833	744.356445	-83.698265
-7329.970426	4173.283833	743.154297	120.124458
-7329.970426	4173.283833	741.952148	-78.724785
-7329.970426	4173.283833	740.750000	-87.050690
-7329.970426	4173.283833	739.547852	-64.696991
-7329.970426	4173.283833	738.344727	-205.155716
-7329.970426	4173.283833	737.142578	59.690025
-7329.970426	4173.283833	735.939453	170.899139
-7329.970426	4173.283833	734.735352	189.948120
-7329.970426	4173.283833	733.532227	18.712879
-7329.970426	4173.283833	732.328125	255.517776
-7329.970426	4173.283833	731.124023	286.688019
-7329.970426	4173.283833	729.918945	118.482437
-7329.970426	4173.283833	728.714844	195.576981
-7329.970426	4173.283833	727.509766	269.532166
-7329.970426	4173.283833	726.303711	193.252319
-7329.970426	4173.283833	725.098633	110.840378
-7329.970426	4173.283833	723.892578	-38.971443
-7329.970426	4173.283833	722.686523	371.701935
-7329.970426	4173.283833	721.480469	215.697586
-7329.970426	4173.283833	720.274414	-47.426693
-7329.970426	4173.283833	719.067383	-10.533363
-7329.970426	4173.283833	717.860352	47.726673
-7329.970426	4173.283833	716.653320	-144.948135
-7329.970426	4173.283833	715.445313	66.175423
-7329.970426	4173.283833	714.238281	-77.566673
-7329.970426	4173.283833	713.030273	-273.266846
-7329.970426	4173.283833	711.821289	-53.193455
-7329.970426	4173.283833	710.613281	-31.899977
-7329.970426	4173.283833	709.404297	184.901901
-7329.970426	4173.283833	708.195313	99.137794
-7329.970426	4173.283833	706.986328	-1.898082
-7329.970426	4173.283833	705.776367	49.751976
-7329.970426	4173.283833	704.566406	61.656246
-7329.970426	4173.283833	703.356445	-106.569695
-7329.970426	4173.283833	702.146484	115.860634
-7329.970426	4173.283833	700.935547	69.664635
-7329.970426	4173.283833	699.724609	-101.614655
-7329.970426	4173.283833	698.513672	-260.657501
-7329.970426	4173.283833	697.302734	-157.437149
-7329.970426	4173.283833	696.090820	55.449310
-7329.970426	4173.283833	694.878906	173.728668
-7329.970426	4173.283833	693.666992	358.965820
-7329.970426	4173.283833	692.455078	-1.248962
-7329.970426	4173.283833	691.242188	147.328995
-7329.970426	4173.283833	690.029297	137.456894
-7329.970426	4173.283833	688.816406	-6.408708
-7329.970426	4173.283833	687.602539	184.597900
-7329.970426	4173.283833	686.389648	174.633484
-7329.970426	4173.283833	685.175781	188.982697
-7329.970426	4173.283833	683.960938	172.872589
-7329.970426	4173.283833	682.747070	56.376114
-7329.970426	4173.283833	681.532227	298.716309
-7329.970426	4173.283833	680.317383	154.821564
-7329.970426	4173.283833	679.102539	96.069435
-7329.970426	4173.283833	677.886719	167.985733
-7329.970426	4173.283833	676.670898	136.545822
-7329.970426	4173.283833	675.455078	138.508148
-7329.970426	4173.283833	674.239258	152.593079
-7329.970426	4173.283833	673.022461	102.882072
-7329.970426	4173.283833	671.805664	147.276413
-7329.970426	4173.283833	670.588867	85.401772
-7329.970426	4173.283833	669.372070	150.979553
-7329.970426	4173.283833	668.154297	334.822662
-7329.970426	4173.283833	666.936523	345.678162
-7329.970426	4173.283833	665.718750	204.883713
-7329.970426	4173.283833	664.500977	155.086563
-7329.970426	4173.283833	663.282227	320.507782
-7329.970426	4173.283833	662.063477	276.729553
-7329.970426	4173.283833	660.844727	51.155972
-7329.970426	4173.283833	659.625000	113.443680
-7329.970426	4173.283833	658.405273	-39.345589
-7329.970426	4173.283833	657.185547	31.991125
-7329.970426	4173.283833	655.965820	51.818909
-7329.970426	4173.283833	654.745117	101.889168
-7329.970426	4173.283833	653.525391	236.663528
-7329.970426	4173.283833	652.303711	23.429684
-7329.970426	4173.283833	651.083008	242.835281
-7329.970426	4173.283833	649.861328	111.326637
-7329.970426	4173.283833	648.640625	-38.272213
-7329.970426	4173.283833	647.417969	120.516830
-7329.970426	4173.283833	646.196289	119.054413
-7329.970426	4173.283833	644.973633	69.238029
-7329.970426	4173.283833	643.750977	291.328827
-7329.970426	4173.283833	642.528320	117.653954
-7329.970426	4173.283833	641.305664	149.393051
-7329.970426	4173.283833	640.082031	250.551544
-7329.970426	4173.283833	638.858398	98.116219
-7329.970426	4173.283833	637.634766	93.620285
-7329.970426	4173.283833	636.410156	152.484238
-7329.970426	4173.283833	635.185547	283.722198
-7329.970426	4173.283833	633.960938	34.905544
-7329.970426	4173.283833	632.736328	-11.778210
-7329.970426	4173.283833	631.510742	50.085640
-7329.970426	4173.283833	630.285156	-249.747528
-7329.970426	4173.283833	629.059570	50.209644
-7329.970426	4173.283833	627.833984	72.880119
-7329.970426	4173.283833	626.607422	-39.997139
-7329.970426	4173.283833	625.380859	24.859615
-7329.970426	4173.283833	624.154297	-57.826859
-7329.970426	4173.283833	622.927734	-122.405083
-7329.970426	4173.283833	621.700195	71.873772
-7329.970426	4173.283833	620.472656	-1.704676
-7329.970426	4173.283833	619.245117	-60.194000
-7329.970426	4173.283833	618.016602	-100.599220
-7329.970426	4173.283833	616.788086	-17.682583
-7329.970426	4173.283833	615.559570	143.383194
-7329.970426	4173.283833	614.331055	15.856096
-7329.970426	4173.283833	613.101563	-81.548111
-7329.970426	4173.283833	611.872070	169.624084
-7329.970426	4173.283833	610.642578	93.304497
-7329.970426	4173.283833	609.413086	-52.030151
-7329.970426	4173.283833	608.182617	90.960052
-7329.970426	4173.283833	606.952148	23.788111
-7329.970426	4173.283833	605.721680	97.731544
-7329.970426	4173.283833	604.491211	294.696777
-7329.970426	4173.283833	603.259766	14.616610
-7329.970426	4173.283833	602.028320	202.579147
-7329.970426	4173.283833	600.796875	-68.299232
-7329.970426	4173.283833	599.564453	53.710270
-7329.970426	4173.283833	598.332031	73.793327
-7329.970426	4173.283833	597.099609	417.554596
-7329.970426	4173.283833	595.867188	173.970840
-7329.970426	4173.283833	594.633789	116.245552
-7329.970426	4173.283833	593.400391	37.622879
-7329.970426	4173.283833	592.166992	87.826614
-7329.970426	4173.283833	590.933594	36.271950
-7329.970426	4173.283833	589.699219	-218.738815
-7329.970426	4173.283833	588.464844	208.645706
-7329.970426	4173.283833	587.230469	-120.991325
-7329.970426	4173.283833	585.995117	105.884903
-7329.970426	4173.283833	584.760742	-148.733276
-7329.970426	4173.283833	583.525391	221.660172
-7329.970426	4173.283833	582.289063	3.089917
-7329.970426	4173.283833	581.053711	5.816562
-7329.970426	4173.283833	579.817383	50.421577
-7329.970426	4173.283833	578.581055	32.332153
-7329.970426	4173.283833	577.343750	172.590195
-7329.970426	4173.283833	576.107422	14.256691
-7329.970426	4173.283833	574.870117	53.075542
-7329.970426	4173.283833	573.631836	20.301821
-7329.970426	4173.283833	572.394531	56.237400
-7329.970426	4173.283833	571.156250	50.449680
-7329.970426	4173.283833	569.917969	-65.633583
-7329.970426	4173.283833	568.679688	316.404572
-7329.970426	4173.283833	567.440430	57.329025
-7329.970426	4173.283833	566.202148	165.072876
-7329.970426	4173.283833	564.961914	-7.305475
-7329.970426	4173.283833	563.722656	368.695984
-7329.970426	4173.283833	562.482422	250.104218
-7329.970426	4173.283833	561.243164	295.438782
-7329.970426	4173.283833	560.001953	138.340668
-7329.970426	4173.283833	558.761719	389.232056
-7329.970426	4173.283833	557.520508	247.205719
-7329.970426	4173.283833	556.279297	138.046021
-7329.970426	4173.283833	555.038086	156.934357
-7329.970426	4173.283833	553.795898	152.092056
-7329.970426	4173.283833	552.554688	260.333527
-7329.970426	4173.283833	551.311523	130.745255
-7329.970426	4173.283833	550.069336	360.969574
-7329.970426	4173.283833	548.826172	415.827515
-7329.970426	4173.283833	547.583984	188.469833
-7329.970426	4173.283833	546.339844	53.375160
-7329.970426	4173.283833	545.096680	176.808105
-7329.970426	4173.283833	543.852539	41.931805
-7329.970426	4173.283833	542.608398	198.128296
-7329.970426	4173.283833	541.364258	-162.109848
-7329.970426	4173.283833	540.119141	83.247643
-7329.970426	4173.283833	538.875000	-0.735556
-7329.970426	4173.283833	537.628906	75.570717
-7329.970426	4173.283833	536.383789	51.098377
-7329.970426	4173.283833	535.137695	154.209473
-7329.970426	4173.283833	533.892578	138.788315
-7329.970426	4173.283833	532.645508	4.909041
-7329.970426	4173.283833	531.399414	-208.830399
-7329.970426	4173.283833	530.152344	208.588638
-7329.970426	4173.283833	528.905273	-7.899251
-7329.970426	4173.283833	527.658203	246.603333
-7329.970426	4173.283833	526.410156	24.444258
-7329.970426	4173.283833	525.163086	-99.861565
-7329.970426	4173.283833	523.914063	-46.481133
-7329.970426	4173.283833	522.666016	-155.760605
-7329.970426	4173.283833	521.416992	-102.225662
-7329.970426	4173.283833	520.167969	1.642398
-7329.970426	4173.283833	518.918945	-240.381439
-7329.970426	4173.283833	517.669922	-26.991989
-7329.970426	4173.283833	516.419922	-53.000458
-7329.970426	4173.283833	515.169922	-132.102493
-7329.970426	4173.283833	513.919922	-175.641510
-7329.970426	4173.283833	512.668945	-47.780277
-7329.970426	4173.283833	511.417969	41.717793
-7329.970426	4173.283833	510.166992	-19.309278
-7329.970426	4173.283833	508.916016	-109.748138
-7329.970426	4173.283833	507.664063	3.543107
-7329.970426	4173.283833	506.412109	78.506592
-7329.970426	4173.283833	505.160156	-17.569740
-7329.970426	4173.283833	503.907227	172.526276
-7329.970426	4173.283833	502.655273	11.750502
-7329.970426	4173.283833	501.402344	57.459034
-7329.970426	4173.283833	500.148438	-38.245869
-7329.970426	4173.283833	498.895508	45.893826
-7329.970426	4173.283833	497.641602	115.335861
-7329.970426	4173.283833	496.387695	40.494942
-7329.970426	4173.283833	495.132813	-93.142540
-7329.970426	4173.283833	493.878906	403.346710
-7329.970426	4173.283833	492.624023	210.942993
-7329.970426	4173.283833	491.368164	68.704964
-7329.970426	4173.283833	490.113281	253.152069
-7329.970426	4173.283833	488.857422	125.781174
-7329.970426	4173.283833	487.601563	57.332195
-7329.970426	4173.283833	486.344727	118.329269
-7329.970426	4173.283833	485.088867	167.586075
-7329.970426	4173.283833	483.832031	263.889435
-7329.970426	4173.283833	482.575195	242.661331
-7329.970426	4173.283833	481.317383	333.111176
-7329.970426	4173.283833	480.059570	267.896057
-7329.970426	4173.283833	478.801758	334.878174
-7329.970426	4173.283833	477.543945	457.639404
-7329.970426	4173.283833	476.285156	565.699402
-7329.970426	4173.283833	475.027344	547.552246
-7329.970426	4173.283833	473.767578	426.750183
-7329.970426	4173.283833	472.508789	616.934204
-7329.970426	4173.283833	471.249023	739.600342
-7329.970426	4173.283833	469.989258	724.420288
-7329.970426	4173.283833	468.729492	852.885193
-7329.970426	4173.283833	467.469727	386.370026
-7329.970426	4173.283833	466.208984	491.410065
-7329.970426	4173.283833	464.948242	561.243774
-7329.970426	4173.283833	463.686523	554.888672
-7329.970426	4173.283833	462.425781	639.290588
-7329.970426	4173.283833	461.164063	202.538330
-7329.970426	4173.283833	459.901367	553.279480
-7329.970426	4173.283833	458.639648	432.711456
-7329.970426	4173.283833	457.376953	373.598419
-7329.970426	4173.283833	456.114258	457.792206
-7329.970426	4173.283833	454.851563	626.708313
-7329.970426	4173.283833	453.587891	494.358124
-7329.970426	4173.283833	452.324219	423.390869
-7329.970426	4173.283833	451.060547	498.511749
-7329.970426	4173.283833	449.796875	447.892517
-7329.970426	4173.283833	448.532227	581.254517
-7329.970426	4173.283833	447.267578	495.433289
-7329.970426	4173.283833	446.002930	473.799255
-7329.970426	4173.283833	444.737305	460.836853
-7329.970426	4173.283833	443.471680	354.379211
-7329.970426	4173.283833	442.206055	376.251465
-7329.970426	4173.283833	440.940430	628.471863
-7329.970426	4173.283833	439.673828	600.449646
-7329.970426	4173.283833	438.407227	618.964783
-7329.970426	4173.283833	437.140625	552.783142
-7329.970426	4173.283833	435.873047	632.226013
-7329.970426	4173.283833	434.605469	469.596771
-7329.970426	4173.283833	433.337891	653.593262
-7329.970426	4173.283833	432.070313	744.122253
-7329.970426	4173.283833	430.801758	822.781067
-7329.970426	4173.283833	429.533203	831.334656
-7329.970426	4173.283833	428.264648	953.217529
-7329.970426	4173.283833	426.996094	940.957642
-7329.970426	4173.283833	425.726563	905.205750
-7329.970426	4173.283833	424.457031	691.781189
-7329.970426	4173.283833	423.186523	867.957947
-7329.970426	4173.283833	421.916992	683.227966
-7329.970426	4173.283833	420.646484	585.537842
-7329.970426	4173.283833	419.375977	781.195251
-7329.970426	4173.283833	418.104492	758.532898
-7329.970426	4173.283833	416.833008	636.805603
-7329.970426	4173.283833	415.561523	596.163635
-7329.970426	4173.283833	414.290039	572.651306
-7329.970426	4173.283833	413.017578	792.717834
-7329.970426	4173.283833	411.746094	785.929138
-7329.970426	4173.283833	410.472656	810.712036
-7329.970426	4173.283833	409.200195	855.438965
-7329.970426	4173.283833	407.926758	1050.619873
-7329.970426	4173.283833	406.653320	845.077209
-7329.970426	4173.283833	405.379883	874.103699
-7329.970426	4173.283833	404.105469	1041.856812
-7329.970426	4173.283833	402.831055	788.828735
-7329.970426	4173.283833	401.556641	1051.288208
-7329.970426	4173.283833	400.282227	1014.763428
-7329.970426	4173.283833	399.006836	803.983643
-7329.970426	4173.283833	397.731445	928.742188
-7329.970426	4173.283833	396.456055	734.460083
-7329.970426	4173.283833	395.179688	597.635071
-7329.970426	4173.283833	393.903320	830.779602
-7329.970426	4173.283833	392.626953	510.628326
-7329.970426	4173.283833	391.350586	430.157715
-7329.970426	4173.283833	390.073242	742.473206
-7329.970426	4173.283833	388.795898	773.575012
-7329.970426	4173.283833	387.518555	624.812805
-7329.970426	4173.283833	386.240234	631.551514
-7329.970426	4173.283833	384.961914	660.756653
-7329.970426	4173.283833	383.683594	793.289795
-7329.970426	4173.283833	382.405273	797.991699
-7329.970426	4173.283833	381.125977	853.956299
-7329.970426	4173.283833	379.846680	588.699890
-7329.970426	4173.283833	378.567383	565.288818
-7329.970426	4173.283833	377.287109	933.596741
-7329.970426	4173.283833	376.006836	605.611206
-7329.970426	4173.283833	374.726563	767.360596
-7329.970426	4173.283833	373.446289	657.121033
-7329.970426	4173.283833	372.165039	693.124756
-7329.970426	4173.283833	370.883789	595.643555
-7329.970426	4173.283833	369.602539	603.960449
-7329.970426	4173.283833	368.320313	470.154266
-7329.970426	4173.283833	367.039063	649.515747
-7329.970426	4173.283833	365.755859	450.494690
-7329.970426	4173.283833	364.473633	564.487122
-7329.970426	4173.283833	363.190430	519.066284
-7329.970426	4173.283833	361.907227	527.334534
-7329.970426	4173.283833	360.624023	534.555847
-7329.970426	4173.283833	359.340820	379.585724
-7329.970426	4173.283833	358.056641	237.949219
-7329.970426	4173.283833	356.772461	302.318726
-7329.970426	4173.283833	355.487305	273.481567
-7329.970426	4173.283833	354.202148	-20.978891
-7329.970426	4173.283833	352.916992	220.929703
-7329.970426	4173.283833	351.631836	122.453209
-7329.970426	4173.283833	350.346680	189.389862
-7329.970426	4173.283833	349.060547	229.140610
-7329.970426	4173.283833	347.774414	37.850098
-7329.970426	4173.283833	346.487305	-82.952660
-7329.970426	4173.283833	345.200195	18.813646
-7329.970426	4173.283833	343.913086	50.273445
-7329.970426	4173.283833	342.625977	63.084972
-7329.970426	4173.283833	341.338867	-51.766769
-7329.970426	4173.283833	340.050781	72.803429
-7329.970426	4173.283833	338.762695	18.047083
-7329.970426	4173.283833	337.473633	44.859734
-7329.970426	4173.283833	336.184570	199.047974
-7329.970426	4173.283833	334.895508	-124.066376
-7329.970426	4173.283833	333.606445	29.711155
-7329.970426	4173.283833	332.317383	144.518967
-7329.970426	4173.283833	331.027344	268.978790
-7329.970426	4173.283833	329.736328	222.695038
-7329.970426	4173.283833	328.446289	160.396286
-7329.970426	4173.283833	327.155273	33.313572
-7329.970426	4173.283833	325.864258	221.998169
-7329.970426	4173.283833	324.573242	242.827133
-7329.970426	4173.283833	323.281250	190.187714
-7329.970426	4173.283833	321.989258	352.900543
-7329.970426	4173.283833	320.697266	21.916544
-7329.970426	4173.283833	319.405273	-45.180042
-7329.970426	4173.283833	318.112305	125.625008
-7329.970426	4173.283833	316.819336	42.880966
-7329.970426	4173.283833	315.526367	155.084793
-7329.970426	4173.283833	314.232422	-149.015274
-7329.970426	4173.283833	312.938477	-212.563965
-7329.970426	4173.283833	311.644531	126.918648
-7329.970426	4173.283833	310.349609	-78.260254
-7329.970426	4173.283833	309.054688	-48.918682
-7329.970426	4173.283833	307.759766	-127.505898
-7329.970426	4173.283833	306.464844	-8.883704
-7329.970426	4173.283833	305.168945	-172.249115
-7329.970426	4173.283833	303.873047	-33.083092
-7329.970426	4173.283833	302.577148	49.317501
-7329.970426	4173.283833	301.281250	100.587936
-7329.970426	4173.283833	299.984375	248.794022
