#X		#Y		#Wave		#Intensity
-6471.942181	4759.319333	1999.946289	-7.959648
-6471.942181	4759.319333	1998.981445	-63.041676
-6471.942181	4759.319333	1998.017578	32.556377
-6471.942181	4759.319333	1997.052734	16.608007
-6471.942181	4759.319333	1996.088867	22.970411
-6471.942181	4759.319333	1995.124023	54.107273
-6471.942181	4759.319333	1994.159180	-6.401132
-6471.942181	4759.319333	1993.193359	61.884277
-6471.942181	4759.319333	1992.228516	125.199280
-6471.942181	4759.319333	1991.262695	62.252956
-6471.942181	4759.319333	1990.296875	4.285678
-6471.942181	4759.319333	1989.331055	-43.755901
-6471.942181	4759.319333	1988.365234	78.931061
-6471.942181	4759.319333	1987.398438	-63.088131
-6471.942181	4759.319333	1986.432617	-17.095144
-6471.942181	4759.319333	1985.465820	125.318604
-6471.942181	4759.319333	1984.499023	57.553810
-6471.942181	4759.319333	1983.532227	36.783169
-6471.942181	4759.319333	1982.565430	43.210369
-6471.942181	4759.319333	1981.597656	7.638755
-6471.942181	4759.319333	1980.629883	-13.090583
-6471.942181	4759.319333	1979.662109	-48.624561
-6471.942181	4759.319333	1978.694336	-71.791000
-6471.942181	4759.319333	1977.726563	92.696999
-6471.942181	4759.319333	1976.758789	-34.148788
-6471.942181	4759.319333	1975.790039	43.904930
-6471.942181	4759.319333	1974.821289	40.507515
-6471.942181	4759.319333	1973.852539	56.855526
-6471.942181	4759.319333	1972.883789	-104.393539
-6471.942181	4759.319333	1971.915039	67.359703
-6471.942181	4759.319333	1970.945313	-17.379469
-6471.942181	4759.319333	1969.975586	-1.003495
-6471.942181	4759.319333	1969.005859	-105.402023
-6471.942181	4759.319333	1968.036133	88.432518
-6471.942181	4759.319333	1967.066406	72.771370
-6471.942181	4759.319333	1966.096680	-14.316143
-6471.942181	4759.319333	1965.125977	-27.474859
-6471.942181	4759.319333	1964.155273	-45.546276
-6471.942181	4759.319333	1963.184570	37.341171
-6471.942181	4759.319333	1962.213867	-12.721478
-6471.942181	4759.319333	1961.242188	92.293808
-6471.942181	4759.319333	1960.271484	-9.420080
-6471.942181	4759.319333	1959.299805	-7.759452
-6471.942181	4759.319333	1958.328125	-1.172563
-6471.942181	4759.319333	1957.356445	0.500458
-6471.942181	4759.319333	1956.384766	4.639207
-6471.942181	4759.319333	1955.412109	-33.009762
-6471.942181	4759.319333	1954.439453	-68.179413
-6471.942181	4759.319333	1953.467773	-98.413780
-6471.942181	4759.319333	1952.495117	45.819366
-6471.942181	4759.319333	1951.521484	-31.086210
-6471.942181	4759.319333	1950.548828	-44.096973
-6471.942181	4759.319333	1949.575195	11.662363
-6471.942181	4759.319333	1948.601563	8.482939
-6471.942181	4759.319333	1947.627930	115.775085
-6471.942181	4759.319333	1946.654297	51.233547
-6471.942181	4759.319333	1945.680664	52.976177
-6471.942181	4759.319333	1944.706055	59.631405
-6471.942181	4759.319333	1943.732422	17.232162
-6471.942181	4759.319333	1942.757813	6.737067
-6471.942181	4759.319333	1941.783203	8.512144
-6471.942181	4759.319333	1940.807617	-33.835148
-6471.942181	4759.319333	1939.833008	-19.785128
-6471.942181	4759.319333	1938.857422	26.123552
-6471.942181	4759.319333	1937.881836	13.217087
-6471.942181	4759.319333	1936.906250	0.321061
-6471.942181	4759.319333	1935.930664	33.971752
-6471.942181	4759.319333	1934.955078	57.820179
-6471.942181	4759.319333	1933.978516	44.940140
-6471.942181	4759.319333	1933.001953	-100.116386
-6471.942181	4759.319333	1932.025391	-27.291153
-6471.942181	4759.319333	1931.048828	-64.602097
-6471.942181	4759.319333	1930.072266	3.306881
-6471.942181	4759.319333	1929.094727	7.597719
-6471.942181	4759.319333	1928.118164	29.011133
-6471.942181	4759.319333	1927.140625	-22.933802
-6471.942181	4759.319333	1926.163086	103.609283
-6471.942181	4759.319333	1925.184570	51.679306
-6471.942181	4759.319333	1924.207031	41.317707
-6471.942181	4759.319333	1923.228516	87.161034
-6471.942181	4759.319333	1922.250000	-52.667767
-6471.942181	4759.319333	1921.271484	20.051157
-6471.942181	4759.319333	1920.292969	39.023247
-6471.942181	4759.319333	1919.314453	94.615318
-6471.942181	4759.319333	1918.334961	-37.771885
-6471.942181	4759.319333	1917.355469	61.751907
-6471.942181	4759.319333	1916.375977	-21.769497
-6471.942181	4759.319333	1915.396484	82.600304
-6471.942181	4759.319333	1914.416992	-52.111244
-6471.942181	4759.319333	1913.436523	18.088421
-6471.942181	4759.319333	1912.457031	71.196701
-6471.942181	4759.319333	1911.476563	-39.049694
-6471.942181	4759.319333	1910.496094	31.116909
-6471.942181	4759.319333	1909.515625	-8.403477
-6471.942181	4759.319333	1908.534180	25.188356
-6471.942181	4759.319333	1907.552734	44.153965
-6471.942181	4759.319333	1906.572266	-5.082502
-6471.942181	4759.319333	1905.590820	147.818726
-6471.942181	4759.319333	1904.608398	127.801598
-6471.942181	4759.319333	1903.626953	-21.220760
-6471.942181	4759.319333	1902.644531	-11.990110
-6471.942181	4759.319333	1901.663086	-0.327963
-6471.942181	4759.319333	1900.680664	8.898195
-6471.942181	4759.319333	1899.698242	-11.066947
-6471.942181	4759.319333	1898.714844	12.751616
-6471.942181	4759.319333	1897.732422	-33.951283
-6471.942181	4759.319333	1896.749023	36.054539
-6471.942181	4759.319333	1895.765625	1.518885
-6471.942181	4759.319333	1894.782227	90.934296
-6471.942181	4759.319333	1893.798828	49.113129
-6471.942181	4759.319333	1892.814453	87.472771
-6471.942181	4759.319333	1891.831055	164.678513
-6471.942181	4759.319333	1890.846680	8.735924
-6471.942181	4759.319333	1889.862305	49.509071
-6471.942181	4759.319333	1888.877930	0.452160
-6471.942181	4759.319333	1887.892578	46.064854
-6471.942181	4759.319333	1886.908203	-2.974134
-6471.942181	4759.319333	1885.922852	-112.647018
-6471.942181	4759.319333	1884.937500	10.577983
-6471.942181	4759.319333	1883.952148	7.648247
-6471.942181	4759.319333	1882.965820	116.254105
-6471.942181	4759.319333	1881.980469	55.121407
-6471.942181	4759.319333	1880.994141	6.128755
-6471.942181	4759.319333	1880.007813	102.552826
-6471.942181	4759.319333	1879.021484	-120.880692
-6471.942181	4759.319333	1878.035156	-65.653625
-6471.942181	4759.319333	1877.047852	-17.715536
-6471.942181	4759.319333	1876.061523	66.525398
-6471.942181	4759.319333	1875.074219	63.574005
-6471.942181	4759.319333	1874.086914	2.526782
-6471.942181	4759.319333	1873.098633	40.726151
-6471.942181	4759.319333	1872.111328	-3.361278
-6471.942181	4759.319333	1871.123047	-37.758053
-6471.942181	4759.319333	1870.135742	-11.675289
-6471.942181	4759.319333	1869.147461	-19.462202
-6471.942181	4759.319333	1868.158203	35.615688
-6471.942181	4759.319333	1867.169922	10.894156
-6471.942181	4759.319333	1866.180664	-11.404739
-6471.942181	4759.319333	1865.192383	43.629749
-6471.942181	4759.319333	1864.203125	9.245300
-6471.942181	4759.319333	1863.213867	-63.780144
-6471.942181	4759.319333	1862.223633	29.864315
-6471.942181	4759.319333	1861.234375	-62.463772
-6471.942181	4759.319333	1860.244141	108.392921
-6471.942181	4759.319333	1859.253906	90.904007
-6471.942181	4759.319333	1858.263672	-42.423809
-6471.942181	4759.319333	1857.273438	46.280449
-6471.942181	4759.319333	1856.282227	101.172379
-6471.942181	4759.319333	1855.291992	86.090805
-6471.942181	4759.319333	1854.300781	54.129021
-6471.942181	4759.319333	1853.309570	-83.913727
-6471.942181	4759.319333	1852.317383	7.100073
-6471.942181	4759.319333	1851.326172	-39.306145
-6471.942181	4759.319333	1850.333984	1.049753
-6471.942181	4759.319333	1849.342773	5.245665
-6471.942181	4759.319333	1848.350586	-21.880529
-6471.942181	4759.319333	1847.357422	47.332176
-6471.942181	4759.319333	1846.365234	-66.488487
-6471.942181	4759.319333	1845.372070	7.509253
-6471.942181	4759.319333	1844.379883	-55.726536
-6471.942181	4759.319333	1843.386719	-17.869738
-6471.942181	4759.319333	1842.393555	65.682419
-6471.942181	4759.319333	1841.399414	-31.227522
-6471.942181	4759.319333	1840.406250	49.876892
-6471.942181	4759.319333	1839.412109	-10.935847
-6471.942181	4759.319333	1838.417969	67.716118
-6471.942181	4759.319333	1837.423828	-26.744946
-6471.942181	4759.319333	1836.429688	37.445751
-6471.942181	4759.319333	1835.434570	51.143414
-6471.942181	4759.319333	1834.440430	16.779177
-6471.942181	4759.319333	1833.445313	-60.816578
-6471.942181	4759.319333	1832.450195	-15.910143
-6471.942181	4759.319333	1831.454102	-38.259853
-6471.942181	4759.319333	1830.458984	-43.804150
-6471.942181	4759.319333	1829.462891	-27.752251
-6471.942181	4759.319333	1828.466797	17.082714
-6471.942181	4759.319333	1827.470703	30.701632
-6471.942181	4759.319333	1826.474609	10.723314
-6471.942181	4759.319333	1825.478516	72.290253
-6471.942181	4759.319333	1824.481445	23.519314
-6471.942181	4759.319333	1823.484375	25.105951
-6471.942181	4759.319333	1822.487305	-11.669640
-6471.942181	4759.319333	1821.490234	-5.300704
-6471.942181	4759.319333	1820.493164	82.526161
-6471.942181	4759.319333	1819.495117	62.504440
-6471.942181	4759.319333	1818.498047	133.501068
-6471.942181	4759.319333	1817.500000	15.272741
-6471.942181	4759.319333	1816.500977	31.163336
-6471.942181	4759.319333	1815.502930	66.190002
-6471.942181	4759.319333	1814.504883	60.505928
-6471.942181	4759.319333	1813.505859	23.705690
-6471.942181	4759.319333	1812.506836	27.582996
-6471.942181	4759.319333	1811.507813	-88.154457
-6471.942181	4759.319333	1810.508789	-36.443493
-6471.942181	4759.319333	1809.508789	10.455683
-6471.942181	4759.319333	1808.508789	76.453278
-6471.942181	4759.319333	1807.508789	180.660812
-6471.942181	4759.319333	1806.508789	53.006451
-6471.942181	4759.319333	1805.508789	6.629046
-6471.942181	4759.319333	1804.508789	36.705067
-6471.942181	4759.319333	1803.507813	21.378323
-6471.942181	4759.319333	1802.506836	-34.548832
-6471.942181	4759.319333	1801.505859	43.238987
-6471.942181	4759.319333	1800.504883	37.438263
-6471.942181	4759.319333	1799.502930	84.135651
-6471.942181	4759.319333	1798.501953	42.516102
-6471.942181	4759.319333	1797.500000	36.688011
-6471.942181	4759.319333	1796.498047	107.181587
-6471.942181	4759.319333	1795.496094	1.158904
-6471.942181	4759.319333	1794.493164	71.611351
-6471.942181	4759.319333	1793.491211	65.740837
-6471.942181	4759.319333	1792.488281	97.997704
-6471.942181	4759.319333	1791.485352	92.103142
-6471.942181	4759.319333	1790.482422	43.313213
-6471.942181	4759.319333	1789.478516	-10.233502
-6471.942181	4759.319333	1788.475586	-28.044472
-6471.942181	4759.319333	1787.471680	87.489983
-6471.942181	4759.319333	1786.467773	95.834274
-6471.942181	4759.319333	1785.463867	156.532318
-6471.942181	4759.319333	1784.459961	19.665386
-6471.942181	4759.319333	1783.455078	23.226009
-6471.942181	4759.319333	1782.450195	131.450119
-6471.942181	4759.319333	1781.445313	23.175583
-6471.942181	4759.319333	1780.440430	7.676318
-6471.942181	4759.319333	1779.435547	53.990883
-6471.942181	4759.319333	1778.429688	14.697689
-6471.942181	4759.319333	1777.424805	-5.576936
-6471.942181	4759.319333	1776.418945	-40.113167
-6471.942181	4759.319333	1775.413086	1.379459
-6471.942181	4759.319333	1774.406250	52.346264
-6471.942181	4759.319333	1773.400391	-36.837322
-6471.942181	4759.319333	1772.393555	94.827759
-6471.942181	4759.319333	1771.386719	-10.971023
-6471.942181	4759.319333	1770.379883	-17.050314
-6471.942181	4759.319333	1769.373047	-53.988728
-6471.942181	4759.319333	1768.365234	6.354564
-6471.942181	4759.319333	1767.358398	-6.874121
-6471.942181	4759.319333	1766.350586	10.723570
-6471.942181	4759.319333	1765.342773	25.932350
-6471.942181	4759.319333	1764.334961	50.607697
-6471.942181	4759.319333	1763.326172	25.482931
-6471.942181	4759.319333	1762.318359	130.705933
-6471.942181	4759.319333	1761.309570	10.772874
-6471.942181	4759.319333	1760.300781	-28.577137
-6471.942181	4759.319333	1759.291016	-51.343971
-6471.942181	4759.319333	1758.282227	-38.589367
-6471.942181	4759.319333	1757.272461	45.179832
-6471.942181	4759.319333	1756.262695	154.946198
-6471.942181	4759.319333	1755.252930	32.711941
-6471.942181	4759.319333	1754.243164	-75.288528
-6471.942181	4759.319333	1753.233398	48.600811
-6471.942181	4759.319333	1752.222656	30.503325
-6471.942181	4759.319333	1751.211914	-46.723358
-6471.942181	4759.319333	1750.201172	-0.974229
-6471.942181	4759.319333	1749.190430	-82.915276
-6471.942181	4759.319333	1748.179688	-18.289135
-6471.942181	4759.319333	1747.167969	-3.326501
-6471.942181	4759.319333	1746.156250	2.168451
-6471.942181	4759.319333	1745.144531	-32.508587
-6471.942181	4759.319333	1744.132813	-17.583900
-6471.942181	4759.319333	1743.121094	-85.325272
-6471.942181	4759.319333	1742.108398	-58.613819
-6471.942181	4759.319333	1741.095703	76.660400
-6471.942181	4759.319333	1740.083008	-61.894424
-6471.942181	4759.319333	1739.070313	-6.919109
-6471.942181	4759.319333	1738.057617	-98.243202
-6471.942181	4759.319333	1737.043945	-78.684395
-6471.942181	4759.319333	1736.030273	4.529428
-6471.942181	4759.319333	1735.016602	-110.354622
-6471.942181	4759.319333	1734.002930	60.034851
-6471.942181	4759.319333	1732.989258	-24.196638
-6471.942181	4759.319333	1731.974609	-77.773552
-6471.942181	4759.319333	1730.959961	-32.388084
-6471.942181	4759.319333	1729.945313	-88.318748
-6471.942181	4759.319333	1728.930664	-12.352111
-6471.942181	4759.319333	1727.916016	-51.802807
-6471.942181	4759.319333	1726.900391	19.398121
-6471.942181	4759.319333	1725.885742	147.053116
-6471.942181	4759.319333	1724.870117	-10.101844
-6471.942181	4759.319333	1723.853516	-40.153137
-6471.942181	4759.319333	1722.837891	-20.801191
-6471.942181	4759.319333	1721.822266	83.203835
-6471.942181	4759.319333	1720.805664	-22.125532
-6471.942181	4759.319333	1719.789063	-12.222599
-6471.942181	4759.319333	1718.772461	-89.305313
-6471.942181	4759.319333	1717.754883	-58.262058
-6471.942181	4759.319333	1716.738281	-10.790716
-6471.942181	4759.319333	1715.720703	-50.270920
-6471.942181	4759.319333	1714.703125	1.858226
-6471.942181	4759.319333	1713.685547	-0.053844
-6471.942181	4759.319333	1712.667969	-25.453587
-6471.942181	4759.319333	1711.649414	-13.294616
-6471.942181	4759.319333	1710.630859	34.055775
-6471.942181	4759.319333	1709.612305	-12.482908
-6471.942181	4759.319333	1708.593750	-0.360287
-6471.942181	4759.319333	1707.575195	93.847054
-6471.942181	4759.319333	1706.555664	33.224533
-6471.942181	4759.319333	1705.536133	57.027943
-6471.942181	4759.319333	1704.516602	64.403366
-6471.942181	4759.319333	1703.497070	-24.330759
-6471.942181	4759.319333	1702.477539	11.161594
-6471.942181	4759.319333	1701.457031	-21.315199
-6471.942181	4759.319333	1700.437500	-56.128922
-6471.942181	4759.319333	1699.416992	12.111808
-6471.942181	4759.319333	1698.395508	-1.639579
-6471.942181	4759.319333	1697.375000	-62.215412
-6471.942181	4759.319333	1696.354492	55.118114
-6471.942181	4759.319333	1695.333008	39.002254
-6471.942181	4759.319333	1694.311523	4.166533
-6471.942181	4759.319333	1693.290039	-56.396286
-6471.942181	4759.319333	1692.267578	-37.422161
-6471.942181	4759.319333	1691.246094	23.631172
-6471.942181	4759.319333	1690.223633	44.905949
-6471.942181	4759.319333	1689.201172	-29.674911
-6471.942181	4759.319333	1688.178711	-101.897202
-6471.942181	4759.319333	1687.155273	78.259438
-6471.942181	4759.319333	1686.132813	43.409603
-6471.942181	4759.319333	1685.109375	17.907637
-6471.942181	4759.319333	1684.085938	39.115204
-6471.942181	4759.319333	1683.062500	-23.747618
-6471.942181	4759.319333	1682.039063	30.128105
-6471.942181	4759.319333	1681.014648	90.976814
-6471.942181	4759.319333	1679.990234	-34.885437
-6471.942181	4759.319333	1678.965820	46.937191
-6471.942181	4759.319333	1677.941406	112.393547
-6471.942181	4759.319333	1676.916992	-48.401531
-6471.942181	4759.319333	1675.891602	61.337162
-6471.942181	4759.319333	1674.866211	66.120285
-6471.942181	4759.319333	1673.840820	126.835381
-6471.942181	4759.319333	1672.815430	-29.202972
-6471.942181	4759.319333	1671.790039	-66.360893
-6471.942181	4759.319333	1670.763672	29.268143
-6471.942181	4759.319333	1669.737305	115.539055
-6471.942181	4759.319333	1668.710938	162.185349
-6471.942181	4759.319333	1667.684570	150.605316
-6471.942181	4759.319333	1666.658203	27.296406
-6471.942181	4759.319333	1665.630859	-0.555363
-6471.942181	4759.319333	1664.603516	-16.767403
-6471.942181	4759.319333	1663.576172	127.538330
-6471.942181	4759.319333	1662.548828	8.959839
-6471.942181	4759.319333	1661.520508	69.478569
-6471.942181	4759.319333	1660.493164	57.896866
-6471.942181	4759.319333	1659.464844	111.400642
-6471.942181	4759.319333	1658.436523	53.323368
-6471.942181	4759.319333	1657.408203	4.558969
-6471.942181	4759.319333	1656.378906	88.229248
-6471.942181	4759.319333	1655.350586	143.992050
-6471.942181	4759.319333	1654.321289	30.200979
-6471.942181	4759.319333	1653.291992	-6.929112
-6471.942181	4759.319333	1652.261719	39.519711
-6471.942181	4759.319333	1651.232422	171.823486
-6471.942181	4759.319333	1650.202148	34.894402
-6471.942181	4759.319333	1649.171875	81.298134
-6471.942181	4759.319333	1648.141602	2.422745
-6471.942181	4759.319333	1647.111328	51.127724
-6471.942181	4759.319333	1646.080078	62.710392
-6471.942181	4759.319333	1645.049805	78.923622
-6471.942181	4759.319333	1644.018555	-115.792839
-6471.942181	4759.319333	1642.987305	90.464111
-6471.942181	4759.319333	1641.955078	78.848961
-6471.942181	4759.319333	1640.923828	55.655376
-6471.942181	4759.319333	1639.891602	37.098965
-6471.942181	4759.319333	1638.859375	20.863110
-6471.942181	4759.319333	1637.827148	108.810974
-6471.942181	4759.319333	1636.794922	85.619667
-6471.942181	4759.319333	1635.761719	43.920246
-6471.942181	4759.319333	1634.729492	80.904823
-6471.942181	4759.319333	1633.696289	46.159351
-6471.942181	4759.319333	1632.662109	203.391220
-6471.942181	4759.319333	1631.628906	161.695389
-6471.942181	4759.319333	1630.594727	-34.888100
-6471.942181	4759.319333	1629.561523	126.889275
-6471.942181	4759.319333	1628.527344	55.184013
-6471.942181	4759.319333	1627.493164	43.581863
-6471.942181	4759.319333	1626.458008	59.703617
-6471.942181	4759.319333	1625.423828	115.085388
-6471.942181	4759.319333	1624.388672	108.093399
-6471.942181	4759.319333	1623.353516	50.309738
-6471.942181	4759.319333	1622.318359	131.050430
-6471.942181	4759.319333	1621.282227	22.508793
-6471.942181	4759.319333	1620.247070	165.524872
-6471.942181	4759.319333	1619.210938	103.159256
-6471.942181	4759.319333	1618.174805	-5.313365
-6471.942181	4759.319333	1617.137695	75.356964
-6471.942181	4759.319333	1616.101563	86.827919
-6471.942181	4759.319333	1615.064453	119.040199
-6471.942181	4759.319333	1614.027344	89.011925
-6471.942181	4759.319333	1612.990234	86.647987
-6471.942181	4759.319333	1611.953125	1.346219
-6471.942181	4759.319333	1610.916016	217.828171
-6471.942181	4759.319333	1609.877930	164.776642
-6471.942181	4759.319333	1608.839844	63.393848
-6471.942181	4759.319333	1607.801758	104.781204
-6471.942181	4759.319333	1606.763672	86.311386
-6471.942181	4759.319333	1605.724609	111.571289
-6471.942181	4759.319333	1604.685547	95.409798
-6471.942181	4759.319333	1603.646484	99.959358
-6471.942181	4759.319333	1602.607422	81.510612
-6471.942181	4759.319333	1601.568359	148.148636
-6471.942181	4759.319333	1600.528320	161.885620
-6471.942181	4759.319333	1599.489258	136.546890
-6471.942181	4759.319333	1598.449219	7.806869
-6471.942181	4759.319333	1597.408203	205.376862
-6471.942181	4759.319333	1596.368164	161.673477
-6471.942181	4759.319333	1595.327148	122.581612
-6471.942181	4759.319333	1594.287109	115.657265
-6471.942181	4759.319333	1593.246094	159.244568
-6471.942181	4759.319333	1592.204102	150.023331
-6471.942181	4759.319333	1591.163086	71.963341
-6471.942181	4759.319333	1590.121094	23.763752
-6471.942181	4759.319333	1589.079102	186.635208
-6471.942181	4759.319333	1588.037109	55.871044
-6471.942181	4759.319333	1586.995117	60.455250
-6471.942181	4759.319333	1585.953125	87.968010
-6471.942181	4759.319333	1584.910156	94.842712
-6471.942181	4759.319333	1583.867188	108.593956
-6471.942181	4759.319333	1582.824219	184.209641
-6471.942181	4759.319333	1581.781250	124.638596
-6471.942181	4759.319333	1580.737305	175.034195
-6471.942181	4759.319333	1579.693359	156.715225
-6471.942181	4759.319333	1578.649414	110.933731
-6471.942181	4759.319333	1577.605469	46.862438
-6471.942181	4759.319333	1576.561523	58.345676
-6471.942181	4759.319333	1575.516602	138.473129
-6471.942181	4759.319333	1574.472656	163.670242
-6471.942181	4759.319333	1573.427734	243.756180
-6471.942181	4759.319333	1572.381836	136.293793
-6471.942181	4759.319333	1571.336914	136.340591
-6471.942181	4759.319333	1570.291016	127.247719
-6471.942181	4759.319333	1569.246094	74.741119
-6471.942181	4759.319333	1568.200195	166.216904
-6471.942181	4759.319333	1567.153320	52.047741
-6471.942181	4759.319333	1566.107422	43.001518
-6471.942181	4759.319333	1565.060547	13.409927
-6471.942181	4759.319333	1564.013672	113.981537
-6471.942181	4759.319333	1562.966797	27.329973
-6471.942181	4759.319333	1561.919922	54.836430
-6471.942181	4759.319333	1560.872070	20.725677
-6471.942181	4759.319333	1559.825195	-13.363877
-6471.942181	4759.319333	1558.777344	-49.715706
-6471.942181	4759.319333	1557.729492	55.347961
-6471.942181	4759.319333	1556.680664	142.135162
-6471.942181	4759.319333	1555.632813	28.285959
-6471.942181	4759.319333	1554.583984	119.616547
-6471.942181	4759.319333	1553.535156	37.732147
-6471.942181	4759.319333	1552.486328	-14.494832
-6471.942181	4759.319333	1551.436523	10.752227
-6471.942181	4759.319333	1550.387695	113.430450
-6471.942181	4759.319333	1549.337891	-25.284779
-6471.942181	4759.319333	1548.288086	52.331852
-6471.942181	4759.319333	1547.238281	-15.743010
-6471.942181	4759.319333	1546.187500	70.957924
-6471.942181	4759.319333	1545.136719	7.470720
-6471.942181	4759.319333	1544.086914	98.699341
-6471.942181	4759.319333	1543.035156	137.589218
-6471.942181	4759.319333	1541.984375	19.578396
-6471.942181	4759.319333	1540.933594	78.946411
-6471.942181	4759.319333	1539.881836	65.563927
-6471.942181	4759.319333	1538.830078	197.634674
-6471.942181	4759.319333	1537.778320	91.097229
-6471.942181	4759.319333	1536.725586	-103.983177
-6471.942181	4759.319333	1535.673828	3.085711
-6471.942181	4759.319333	1534.621094	69.247314
-6471.942181	4759.319333	1533.568359	121.770279
-6471.942181	4759.319333	1532.515625	65.330688
-6471.942181	4759.319333	1531.461914	15.729209
-6471.942181	4759.319333	1530.409180	-11.153550
-6471.942181	4759.319333	1529.355469	45.915482
-6471.942181	4759.319333	1528.301758	-10.429629
-6471.942181	4759.319333	1527.247070	-0.984882
-6471.942181	4759.319333	1526.193359	26.603411
-6471.942181	4759.319333	1525.138672	-34.210907
-6471.942181	4759.319333	1524.083984	122.565315
-6471.942181	4759.319333	1523.029297	129.748306
-6471.942181	4759.319333	1521.974609	107.488777
-6471.942181	4759.319333	1520.918945	49.008839
-6471.942181	4759.319333	1519.863281	69.816498
-6471.942181	4759.319333	1518.807617	9.122757
-6471.942181	4759.319333	1517.751953	5.051210
-6471.942181	4759.319333	1516.696289	-37.481331
-6471.942181	4759.319333	1515.639648	12.780253
-6471.942181	4759.319333	1514.583008	26.836842
-6471.942181	4759.319333	1513.526367	-63.141834
-6471.942181	4759.319333	1512.469727	-62.623001
-6471.942181	4759.319333	1511.412109	-50.790951
-6471.942181	4759.319333	1510.355469	44.682549
-6471.942181	4759.319333	1509.297852	-92.647057
-6471.942181	4759.319333	1508.240234	-44.632488
-6471.942181	4759.319333	1507.181641	-64.399147
-6471.942181	4759.319333	1506.124023	-50.267338
-6471.942181	4759.319333	1505.065430	-33.872936
-6471.942181	4759.319333	1504.006836	-40.051609
-6471.942181	4759.319333	1502.948242	-134.250336
-6471.942181	4759.319333	1501.888672	-9.490717
-6471.942181	4759.319333	1500.830078	-33.688862
-6471.942181	4759.319333	1499.770508	-98.473717
-6471.942181	4759.319333	1498.710938	-154.200302
-6471.942181	4759.319333	1497.650391	-94.888214
-6471.942181	4759.319333	1496.590820	-42.351364
-6471.942181	4759.319333	1495.530273	-73.227898
-6471.942181	4759.319333	1494.469727	60.437675
-6471.942181	4759.319333	1493.409180	-128.150742
-6471.942181	4759.319333	1492.348633	41.539841
-6471.942181	4759.319333	1491.287109	-74.873169
-6471.942181	4759.319333	1490.225586	-17.833252
-6471.942181	4759.319333	1489.164063	-53.113323
-6471.942181	4759.319333	1488.102539	-43.348358
-6471.942181	4759.319333	1487.041016	40.692387
-6471.942181	4759.319333	1485.978516	-50.796970
-6471.942181	4759.319333	1484.916016	-56.747524
-6471.942181	4759.319333	1483.853516	-112.174377
-6471.942181	4759.319333	1482.791016	-32.638535
-6471.942181	4759.319333	1481.727539	-45.301067
-6471.942181	4759.319333	1480.664063	-19.737160
-6471.942181	4759.319333	1479.600586	21.553947
-6471.942181	4759.319333	1478.537109	56.117691
-6471.942181	4759.319333	1477.473633	43.490223
-6471.942181	4759.319333	1476.409180	26.378454
-6471.942181	4759.319333	1475.344727	126.002296
-6471.942181	4759.319333	1474.280273	39.381557
-6471.942181	4759.319333	1473.215820	-44.952015
-6471.942181	4759.319333	1472.151367	54.715714
-6471.942181	4759.319333	1471.085938	-22.816992
-6471.942181	4759.319333	1470.020508	87.927536
-6471.942181	4759.319333	1468.955078	162.865097
-6471.942181	4759.319333	1467.888672	44.999039
-6471.942181	4759.319333	1466.823242	84.026062
-6471.942181	4759.319333	1465.756836	67.026146
-6471.942181	4759.319333	1464.690430	-32.611492
-6471.942181	4759.319333	1463.624023	84.712296
-6471.942181	4759.319333	1462.556641	43.106396
-6471.942181	4759.319333	1461.490234	-42.988495
-6471.942181	4759.319333	1460.422852	14.215731
-6471.942181	4759.319333	1459.355469	135.842606
-6471.942181	4759.319333	1458.287109	98.579941
-6471.942181	4759.319333	1457.219727	70.800690
-6471.942181	4759.319333	1456.151367	-44.401524
-6471.942181	4759.319333	1455.083008	32.897324
-6471.942181	4759.319333	1454.014648	63.456512
-6471.942181	4759.319333	1452.945313	113.484398
-6471.942181	4759.319333	1451.876953	141.548660
-6471.942181	4759.319333	1450.807617	180.626312
-6471.942181	4759.319333	1449.738281	96.629852
-6471.942181	4759.319333	1448.668945	60.093456
-6471.942181	4759.319333	1447.598633	59.050484
-6471.942181	4759.319333	1446.528320	175.679504
-6471.942181	4759.319333	1445.458008	194.522980
-6471.942181	4759.319333	1444.387695	95.355820
-6471.942181	4759.319333	1443.317383	137.209259
-6471.942181	4759.319333	1442.246094	198.261734
-6471.942181	4759.319333	1441.174805	75.335289
-6471.942181	4759.319333	1440.103516	16.158201
-6471.942181	4759.319333	1439.032227	-6.487813
-6471.942181	4759.319333	1437.960938	116.564224
-6471.942181	4759.319333	1436.888672	85.072884
-6471.942181	4759.319333	1435.816406	93.014214
-6471.942181	4759.319333	1434.744141	-41.119137
-6471.942181	4759.319333	1433.670898	-66.188194
-6471.942181	4759.319333	1432.598633	19.510757
-6471.942181	4759.319333	1431.525391	84.767639
-6471.942181	4759.319333	1430.452148	90.220543
-6471.942181	4759.319333	1429.378906	82.882637
-6471.942181	4759.319333	1428.304688	142.440063
-6471.942181	4759.319333	1427.231445	-111.386757
-6471.942181	4759.319333	1426.157227	21.777674
-6471.942181	4759.319333	1425.083008	-24.817528
-6471.942181	4759.319333	1424.007813	-26.580173
-6471.942181	4759.319333	1422.933594	16.350210
-6471.942181	4759.319333	1421.858398	20.743242
-6471.942181	4759.319333	1420.783203	-79.398346
-6471.942181	4759.319333	1419.708008	3.171744
-6471.942181	4759.319333	1418.631836	-48.917858
-6471.942181	4759.319333	1417.555664	-35.745525
-6471.942181	4759.319333	1416.479492	22.236320
-6471.942181	4759.319333	1415.403320	1.134092
-6471.942181	4759.319333	1414.327148	-17.878906
-6471.942181	4759.319333	1413.250000	2.918038
-6471.942181	4759.319333	1412.173828	29.234529
-6471.942181	4759.319333	1411.096680	-36.030201
-6471.942181	4759.319333	1410.018555	8.007877
-6471.942181	4759.319333	1408.941406	-16.659964
-6471.942181	4759.319333	1407.863281	12.605808
-6471.942181	4759.319333	1406.785156	-1.057476
-6471.942181	4759.319333	1405.707031	-90.919632
-6471.942181	4759.319333	1404.628906	-92.513901
-6471.942181	4759.319333	1403.549805	107.698387
-6471.942181	4759.319333	1402.470703	-55.547089
-6471.942181	4759.319333	1401.391602	20.930531
-6471.942181	4759.319333	1400.312500	-38.747948
-6471.942181	4759.319333	1399.233398	57.469189
-6471.942181	4759.319333	1398.153320	-119.051453
-6471.942181	4759.319333	1397.073242	15.428179
-6471.942181	4759.319333	1395.993164	7.766197
-6471.942181	4759.319333	1394.913086	165.410553
-6471.942181	4759.319333	1393.832031	58.957367
-6471.942181	4759.319333	1392.750977	27.730116
-6471.942181	4759.319333	1391.669922	93.302963
-6471.942181	4759.319333	1390.588867	135.877762
-6471.942181	4759.319333	1389.506836	168.560211
-6471.942181	4759.319333	1388.425781	61.848484
-6471.942181	4759.319333	1387.343750	92.144455
-6471.942181	4759.319333	1386.261719	41.793018
-6471.942181	4759.319333	1385.178711	62.059814
-6471.942181	4759.319333	1384.096680	57.737850
-6471.942181	4759.319333	1383.013672	76.035492
-6471.942181	4759.319333	1381.930664	35.982143
-6471.942181	4759.319333	1380.846680	56.405743
-6471.942181	4759.319333	1379.763672	68.117043
-6471.942181	4759.319333	1378.679688	111.668228
-6471.942181	4759.319333	1377.595703	-1.742632
-6471.942181	4759.319333	1376.511719	54.607540
-6471.942181	4759.319333	1375.427734	97.873230
-6471.942181	4759.319333	1374.342773	128.874603
-6471.942181	4759.319333	1373.257813	116.817520
-6471.942181	4759.319333	1372.172852	172.976303
-6471.942181	4759.319333	1371.087891	133.599701
-6471.942181	4759.319333	1370.001953	115.257156
-6471.942181	4759.319333	1368.916992	64.853737
-6471.942181	4759.319333	1367.831055	31.543365
-6471.942181	4759.319333	1366.744141	86.892410
-6471.942181	4759.319333	1365.658203	101.222595
-6471.942181	4759.319333	1364.571289	185.821442
-6471.942181	4759.319333	1363.484375	83.952583
-6471.942181	4759.319333	1362.397461	47.069298
-6471.942181	4759.319333	1361.310547	115.293106
-6471.942181	4759.319333	1360.222656	86.569542
-6471.942181	4759.319333	1359.135742	66.989998
-6471.942181	4759.319333	1358.047852	38.165592
-6471.942181	4759.319333	1356.958984	99.383881
-6471.942181	4759.319333	1355.871094	2.165887
-6471.942181	4759.319333	1354.782227	39.443581
-6471.942181	4759.319333	1353.693359	102.903343
-6471.942181	4759.319333	1352.604492	184.649338
-6471.942181	4759.319333	1351.515625	195.675400
-6471.942181	4759.319333	1350.425781	197.223511
-6471.942181	4759.319333	1349.335938	90.825470
-6471.942181	4759.319333	1348.246094	215.844742
-6471.942181	4759.319333	1347.156250	186.924530
-6471.942181	4759.319333	1346.066406	273.448334
-6471.942181	4759.319333	1344.975586	239.525864
-6471.942181	4759.319333	1343.884766	294.726196
-6471.942181	4759.319333	1342.793945	276.345184
-6471.942181	4759.319333	1341.702148	234.996216
-6471.942181	4759.319333	1340.611328	225.181747
-6471.942181	4759.319333	1339.519531	272.967529
-6471.942181	4759.319333	1338.427734	226.186798
-6471.942181	4759.319333	1337.334961	283.436127
-6471.942181	4759.319333	1336.243164	200.799713
-6471.942181	4759.319333	1335.150391	244.509842
-6471.942181	4759.319333	1334.057617	278.996674
-6471.942181	4759.319333	1332.964844	348.674133
-6471.942181	4759.319333	1331.871094	343.819061
-6471.942181	4759.319333	1330.778320	386.053406
-6471.942181	4759.319333	1329.684570	368.782410
-6471.942181	4759.319333	1328.590820	329.690002
-6471.942181	4759.319333	1327.496094	361.410248
-6471.942181	4759.319333	1326.402344	318.978333
-6471.942181	4759.319333	1325.307617	371.201660
-6471.942181	4759.319333	1324.212891	227.440475
-6471.942181	4759.319333	1323.117188	303.314606
-6471.942181	4759.319333	1322.022461	243.239609
-6471.942181	4759.319333	1320.926758	275.596191
-6471.942181	4759.319333	1319.831055	252.216415
-6471.942181	4759.319333	1318.735352	298.319244
-6471.942181	4759.319333	1317.638672	235.289703
-6471.942181	4759.319333	1316.542969	197.461716
-6471.942181	4759.319333	1315.446289	169.271698
-6471.942181	4759.319333	1314.349609	141.361786
-6471.942181	4759.319333	1313.251953	195.050140
-6471.942181	4759.319333	1312.155273	176.489029
-6471.942181	4759.319333	1311.057617	182.137833
-6471.942181	4759.319333	1309.959961	227.109863
-6471.942181	4759.319333	1308.862305	225.100861
-6471.942181	4759.319333	1307.763672	301.156281
-6471.942181	4759.319333	1306.665039	199.042282
-6471.942181	4759.319333	1305.566406	247.735291
-6471.942181	4759.319333	1304.467773	110.100502
-6471.942181	4759.319333	1303.369141	237.480087
-6471.942181	4759.319333	1302.269531	169.161987
-6471.942181	4759.319333	1301.169922	261.512909
-6471.942181	4759.319333	1300.070313	330.665527
-6471.942181	4759.319333	1298.970703	346.703308
-6471.942181	4759.319333	1297.870117	412.412476
-6471.942181	4759.319333	1296.769531	524.096191
-6471.942181	4759.319333	1295.668945	664.140381
-6471.942181	4759.319333	1294.568359	748.015198
-6471.942181	4759.319333	1293.466797	636.630920
-6471.942181	4759.319333	1292.366211	702.166199
-6471.942181	4759.319333	1291.264648	535.740784
-6471.942181	4759.319333	1290.162109	479.713684
-6471.942181	4759.319333	1289.060547	456.316895
-6471.942181	4759.319333	1287.958008	435.053619
-6471.942181	4759.319333	1286.855469	439.162354
-6471.942181	4759.319333	1285.752930	440.714050
-6471.942181	4759.319333	1284.650391	481.540436
-6471.942181	4759.319333	1283.546875	425.335480
-6471.942181	4759.319333	1282.444336	355.030487
-6471.942181	4759.319333	1281.339844	340.280945
-6471.942181	4759.319333	1280.236328	237.178284
-6471.942181	4759.319333	1279.132813	173.419434
-6471.942181	4759.319333	1278.028320	113.700142
-6471.942181	4759.319333	1276.923828	97.042526
-6471.942181	4759.319333	1275.819336	147.867401
-6471.942181	4759.319333	1274.713867	90.289200
-6471.942181	4759.319333	1273.608398	10.754855
-6471.942181	4759.319333	1272.503906	68.201973
-6471.942181	4759.319333	1271.397461	72.551239
-6471.942181	4759.319333	1270.291992	55.737274
-6471.942181	4759.319333	1269.185547	130.666077
-6471.942181	4759.319333	1268.080078	73.482986
-6471.942181	4759.319333	1266.972656	68.674393
-6471.942181	4759.319333	1265.866211	58.419994
-6471.942181	4759.319333	1264.759766	12.086214
-6471.942181	4759.319333	1263.652344	72.007256
-6471.942181	4759.319333	1262.544922	4.497434
-6471.942181	4759.319333	1261.436523	9.839935
-6471.942181	4759.319333	1260.329102	40.870483
-6471.942181	4759.319333	1259.220703	43.787376
-6471.942181	4759.319333	1258.112305	43.042366
-6471.942181	4759.319333	1257.003906	-17.383429
-6471.942181	4759.319333	1255.895508	-62.102146
-6471.942181	4759.319333	1254.786133	58.266094
-6471.942181	4759.319333	1253.676758	-12.143860
-6471.942181	4759.319333	1252.567383	74.341255
-6471.942181	4759.319333	1251.458008	7.746752
-6471.942181	4759.319333	1250.347656	-39.530396
-6471.942181	4759.319333	1249.237305	-4.453725
-6471.942181	4759.319333	1248.126953	77.692261
-6471.942181	4759.319333	1247.016602	-73.597649
-6471.942181	4759.319333	1245.905273	-12.368361
-6471.942181	4759.319333	1244.793945	-80.085861
-6471.942181	4759.319333	1243.682617	3.232443
-6471.942181	4759.319333	1242.571289	-19.495808
-6471.942181	4759.319333	1241.459961	21.036930
-6471.942181	4759.319333	1240.347656	68.423447
-6471.942181	4759.319333	1239.235352	129.893311
-6471.942181	4759.319333	1238.123047	58.486732
-6471.942181	4759.319333	1237.009766	106.876579
-6471.942181	4759.319333	1235.897461	74.231529
-6471.942181	4759.319333	1234.784180	46.600540
-6471.942181	4759.319333	1233.670898	114.225861
-6471.942181	4759.319333	1232.556641	60.175396
-6471.942181	4759.319333	1231.443359	111.963272
-6471.942181	4759.319333	1230.329102	31.883814
-6471.942181	4759.319333	1229.214844	25.710768
-6471.942181	4759.319333	1228.099609	13.423661
-6471.942181	4759.319333	1226.985352	46.357422
-6471.942181	4759.319333	1225.870117	91.978493
-6471.942181	4759.319333	1224.754883	-17.038494
-6471.942181	4759.319333	1223.639648	-27.941410
-6471.942181	4759.319333	1222.523438	69.231445
-6471.942181	4759.319333	1221.408203	34.971504
-6471.942181	4759.319333	1220.291992	22.946381
-6471.942181	4759.319333	1219.174805	142.476318
-6471.942181	4759.319333	1218.058594	17.218027
-6471.942181	4759.319333	1216.941406	-23.244370
-6471.942181	4759.319333	1215.824219	55.028172
-6471.942181	4759.319333	1214.707031	91.573181
-6471.942181	4759.319333	1213.589844	12.619843
-6471.942181	4759.319333	1212.471680	29.244120
-6471.942181	4759.319333	1211.353516	40.934372
-6471.942181	4759.319333	1210.235352	54.219589
-6471.942181	4759.319333	1209.117188	22.363874
-6471.942181	4759.319333	1207.998047	51.063789
-6471.942181	4759.319333	1206.878906	13.184171
-6471.942181	4759.319333	1205.759766	28.105324
-6471.942181	4759.319333	1204.640625	127.718307
-6471.942181	4759.319333	1203.520508	80.195023
-6471.942181	4759.319333	1202.401367	17.281324
-6471.942181	4759.319333	1201.281250	-1.667193
-6471.942181	4759.319333	1200.160156	105.573532
-6471.942181	4759.319333	1199.040039	29.618980
-6471.942181	4759.319333	1197.918945	85.050087
-6471.942181	4759.319333	1196.797852	41.964855
-6471.942181	4759.319333	1195.676758	31.287054
-6471.942181	4759.319333	1194.555664	-15.800998
-6471.942181	4759.319333	1193.433594	-7.847853
-6471.942181	4759.319333	1192.311523	-6.604871
-6471.942181	4759.319333	1191.189453	8.642738
-6471.942181	4759.319333	1190.066406	-45.365738
-6471.942181	4759.319333	1188.944336	-80.441544
-6471.942181	4759.319333	1187.821289	-69.128281
-6471.942181	4759.319333	1186.698242	2.549273
-6471.942181	4759.319333	1185.574219	-13.801199
-6471.942181	4759.319333	1184.451172	2.211715
-6471.942181	4759.319333	1183.327148	-16.002468
-6471.942181	4759.319333	1182.203125	-6.839375
-6471.942181	4759.319333	1181.078125	-54.731606
-6471.942181	4759.319333	1179.954102	-69.241341
-6471.942181	4759.319333	1178.829102	-67.803322
-6471.942181	4759.319333	1177.704102	-95.093430
-6471.942181	4759.319333	1176.579102	-43.796284
-6471.942181	4759.319333	1175.453125	-98.855469
-6471.942181	4759.319333	1174.327148	-21.490335
-6471.942181	4759.319333	1173.201172	-34.055161
-6471.942181	4759.319333	1172.075195	-33.826111
-6471.942181	4759.319333	1170.949219	-15.350345
-6471.942181	4759.319333	1169.822266	-62.009693
-6471.942181	4759.319333	1168.695313	-59.968552
-6471.942181	4759.319333	1167.568359	-48.672752
-6471.942181	4759.319333	1166.440430	-21.390369
-6471.942181	4759.319333	1165.313477	-111.224045
-6471.942181	4759.319333	1164.185547	-64.994301
-6471.942181	4759.319333	1163.057617	32.477253
-6471.942181	4759.319333	1161.928711	-23.051083
-6471.942181	4759.319333	1160.800781	-62.224907
-6471.942181	4759.319333	1159.671875	-11.395520
-6471.942181	4759.319333	1158.541992	-42.153538
-6471.942181	4759.319333	1157.413086	-56.761230
-6471.942181	4759.319333	1156.283203	-101.538185
-6471.942181	4759.319333	1155.154297	-48.488110
-6471.942181	4759.319333	1154.023438	7.533525
-6471.942181	4759.319333	1152.893555	-77.008987
-6471.942181	4759.319333	1151.763672	-71.637627
-6471.942181	4759.319333	1150.632813	-117.608772
-6471.942181	4759.319333	1149.501953	-78.509857
-6471.942181	4759.319333	1148.370117	-117.845795
-6471.942181	4759.319333	1147.239258	-37.544579
-6471.942181	4759.319333	1146.107422	20.198444
-6471.942181	4759.319333	1144.975586	-2.742228
-6471.942181	4759.319333	1143.843750	-67.059982
-6471.942181	4759.319333	1142.710938	-11.987273
-6471.942181	4759.319333	1141.578125	-41.941105
-6471.942181	4759.319333	1140.445313	-0.948592
-6471.942181	4759.319333	1139.312500	-68.973869
-6471.942181	4759.319333	1138.178711	-79.720345
-6471.942181	4759.319333	1137.045898	-72.313713
-6471.942181	4759.319333	1135.912109	-28.273836
-6471.942181	4759.319333	1134.777344	-19.349510
-6471.942181	4759.319333	1133.643555	58.418800
-6471.942181	4759.319333	1132.508789	45.283436
-6471.942181	4759.319333	1131.374023	119.660934
-6471.942181	4759.319333	1130.239258	38.077885
-6471.942181	4759.319333	1129.104492	10.783798
-6471.942181	4759.319333	1127.968750	61.620399
-6471.942181	4759.319333	1126.833008	102.251305
-6471.942181	4759.319333	1125.697266	33.469959
-6471.942181	4759.319333	1124.560547	53.373703
-6471.942181	4759.319333	1123.424805	30.348406
-6471.942181	4759.319333	1122.288086	13.511105
-6471.942181	4759.319333	1121.151367	24.720018
-6471.942181	4759.319333	1120.013672	61.322720
-6471.942181	4759.319333	1118.876953	52.904316
-6471.942181	4759.319333	1117.739258	99.733200
-6471.942181	4759.319333	1116.601563	61.866337
-6471.942181	4759.319333	1115.462891	38.414467
-6471.942181	4759.319333	1114.324219	16.663319
-6471.942181	4759.319333	1113.186523	77.045853
-6471.942181	4759.319333	1112.046875	-23.051260
-6471.942181	4759.319333	1110.908203	-15.824503
-6471.942181	4759.319333	1109.769531	28.295116
-6471.942181	4759.319333	1108.629883	52.094357
-6471.942181	4759.319333	1107.490234	72.952965
-6471.942181	4759.319333	1106.349609	42.420879
-6471.942181	4759.319333	1105.209961	36.184608
-6471.942181	4759.319333	1104.069336	85.165794
-6471.942181	4759.319333	1102.928711	142.453430
-6471.942181	4759.319333	1101.787109	61.118450
-6471.942181	4759.319333	1100.646484	64.817589
-6471.942181	4759.319333	1099.504883	30.970776
-6471.942181	4759.319333	1098.363281	87.173843
-6471.942181	4759.319333	1097.221680	36.785690
-6471.942181	4759.319333	1096.079102	53.371368
-6471.942181	4759.319333	1094.936523	71.142204
-6471.942181	4759.319333	1093.793945	-33.777027
-6471.942181	4759.319333	1092.651367	92.431549
-6471.942181	4759.319333	1091.507813	76.466042
-6471.942181	4759.319333	1090.364258	90.803894
-6471.942181	4759.319333	1089.220703	65.451485
-6471.942181	4759.319333	1088.077148	110.156128
-6471.942181	4759.319333	1086.933594	54.245731
-6471.942181	4759.319333	1085.789063	78.374184
-6471.942181	4759.319333	1084.644531	38.666676
-6471.942181	4759.319333	1083.499023	-18.713142
-6471.942181	4759.319333	1082.354492	50.393063
-6471.942181	4759.319333	1081.208984	11.285489
-6471.942181	4759.319333	1080.063477	-15.587671
-6471.942181	4759.319333	1078.917969	130.227463
-6471.942181	4759.319333	1077.771484	66.659424
-6471.942181	4759.319333	1076.625977	99.182007
-6471.942181	4759.319333	1075.479492	58.667160
-6471.942181	4759.319333	1074.332031	74.573883
-6471.942181	4759.319333	1073.185547	61.987556
-6471.942181	4759.319333	1072.038086	137.016449
-6471.942181	4759.319333	1070.890625	51.516968
-6471.942181	4759.319333	1069.743164	85.930321
-6471.942181	4759.319333	1068.594727	15.699419
-6471.942181	4759.319333	1067.447266	1.778578
-6471.942181	4759.319333	1066.298828	29.019930
-6471.942181	4759.319333	1065.149414	58.674957
-6471.942181	4759.319333	1064.000977	161.499512
-6471.942181	4759.319333	1062.851563	163.010483
-6471.942181	4759.319333	1061.702148	121.482063
-6471.942181	4759.319333	1060.552734	156.216278
-6471.942181	4759.319333	1059.402344	150.145554
-6471.942181	4759.319333	1058.252930	110.894638
-6471.942181	4759.319333	1057.102539	28.537067
-6471.942181	4759.319333	1055.951172	87.835808
-6471.942181	4759.319333	1054.800781	12.931500
-6471.942181	4759.319333	1053.649414	101.509979
-6471.942181	4759.319333	1052.498047	163.486313
-6471.942181	4759.319333	1051.346680	40.795334
-6471.942181	4759.319333	1050.194336	-30.099297
-6471.942181	4759.319333	1049.042969	-36.219013
-6471.942181	4759.319333	1047.890625	-51.278412
-6471.942181	4759.319333	1046.738281	100.933250
-6471.942181	4759.319333	1045.584961	-37.148952
-6471.942181	4759.319333	1044.431641	28.406178
-6471.942181	4759.319333	1043.278320	21.209276
-6471.942181	4759.319333	1042.125000	-5.617555
-6471.942181	4759.319333	1040.971680	29.762638
-6471.942181	4759.319333	1039.817383	94.613289
-6471.942181	4759.319333	1038.663086	117.072151
-6471.942181	4759.319333	1037.508789	85.466896
-6471.942181	4759.319333	1036.353516	-6.876778
-6471.942181	4759.319333	1035.198242	-57.165844
-6471.942181	4759.319333	1034.042969	10.480601
-6471.942181	4759.319333	1032.887695	51.241058
-6471.942181	4759.319333	1031.732422	128.795746
-6471.942181	4759.319333	1030.576172	130.766235
-6471.942181	4759.319333	1029.419922	161.805191
-6471.942181	4759.319333	1028.263672	107.393631
-6471.942181	4759.319333	1027.106445	55.245628
-6471.942181	4759.319333	1025.949219	91.273643
-6471.942181	4759.319333	1024.792969	10.311007
-6471.942181	4759.319333	1023.634766	11.878362
-6471.942181	4759.319333	1022.477539	67.988846
-6471.942181	4759.319333	1021.319336	-32.065624
-6471.942181	4759.319333	1020.161133	43.184536
-6471.942181	4759.319333	1019.002930	-38.294571
-6471.942181	4759.319333	1017.843750	-69.202423
-6471.942181	4759.319333	1016.684570	55.561165
-6471.942181	4759.319333	1015.525391	-47.861172
-6471.942181	4759.319333	1014.366211	-5.671794
-6471.942181	4759.319333	1013.207031	46.848339
-6471.942181	4759.319333	1012.046875	92.703102
-6471.942181	4759.319333	1010.886719	123.841591
-6471.942181	4759.319333	1009.726563	28.548742
-6471.942181	4759.319333	1008.565430	-67.215744
-6471.942181	4759.319333	1007.404297	107.341698
-6471.942181	4759.319333	1006.243164	-12.296716
-6471.942181	4759.319333	1005.082031	-7.367997
-6471.942181	4759.319333	1003.920898	-58.296421
-6471.942181	4759.319333	1002.758789	-47.901844
-6471.942181	4759.319333	1001.596680	17.241383
-6471.942181	4759.319333	1000.433594	-17.350903
-6471.942181	4759.319333	999.271484	-21.925816
-6471.942181	4759.319333	998.108398	13.662768
-6471.942181	4759.319333	996.945313	-15.381415
-6471.942181	4759.319333	995.782227	75.071312
-6471.942181	4759.319333	994.618164	57.640057
-6471.942181	4759.319333	993.454102	-57.258556
-6471.942181	4759.319333	992.290039	-56.570530
-6471.942181	4759.319333	991.125977	25.034746
-6471.942181	4759.319333	989.960938	106.001076
-6471.942181	4759.319333	988.796875	54.263977
-6471.942181	4759.319333	987.630859	118.189690
-6471.942181	4759.319333	986.465820	-56.920708
-6471.942181	4759.319333	985.300781	23.707399
-6471.942181	4759.319333	984.134766	82.206291
-6471.942181	4759.319333	982.968750	-166.730789
-6471.942181	4759.319333	981.801758	9.617313
-6471.942181	4759.319333	980.635742	41.414619
-6471.942181	4759.319333	979.468750	-22.500374
-6471.942181	4759.319333	978.301758	-4.837989
-6471.942181	4759.319333	977.133789	1.321648
-6471.942181	4759.319333	975.966797	-5.456789
-6471.942181	4759.319333	974.798828	2.810449
-6471.942181	4759.319333	973.630859	13.199906
-6471.942181	4759.319333	972.461914	-35.639294
-6471.942181	4759.319333	971.293945	62.420994
-6471.942181	4759.319333	970.125000	3.558369
-6471.942181	4759.319333	968.956055	8.231210
-6471.942181	4759.319333	967.786133	-3.136216
-6471.942181	4759.319333	966.617188	59.615734
-6471.942181	4759.319333	965.447266	35.208595
-6471.942181	4759.319333	964.276367	-140.217941
-6471.942181	4759.319333	963.106445	-52.095295
-6471.942181	4759.319333	961.935547	-43.209743
-6471.942181	4759.319333	960.764648	-49.801399
-6471.942181	4759.319333	959.593750	28.884911
-6471.942181	4759.319333	958.422852	-33.820705
-6471.942181	4759.319333	957.250977	-52.289631
-6471.942181	4759.319333	956.079102	2.145736
-6471.942181	4759.319333	954.907227	13.108966
-6471.942181	4759.319333	953.734375	11.306308
-6471.942181	4759.319333	952.562500	6.866875
-6471.942181	4759.319333	951.389648	43.060062
-6471.942181	4759.319333	950.215820	78.954758
-6471.942181	4759.319333	949.042969	-44.627071
-6471.942181	4759.319333	947.869141	-28.724855
-6471.942181	4759.319333	946.695313	92.803612
-6471.942181	4759.319333	945.521484	32.829449
-6471.942181	4759.319333	944.346680	21.441240
-6471.942181	4759.319333	943.172852	-14.570788
-6471.942181	4759.319333	941.998047	14.927755
-6471.942181	4759.319333	940.822266	109.819229
-6471.942181	4759.319333	939.647461	28.839907
-6471.942181	4759.319333	938.471680	19.905186
-6471.942181	4759.319333	937.295898	35.890171
-6471.942181	4759.319333	936.119141	0.090966
-6471.942181	4759.319333	934.943359	27.279470
-6471.942181	4759.319333	933.766602	52.219482
-6471.942181	4759.319333	932.589844	115.427216
-6471.942181	4759.319333	931.413086	75.086533
-6471.942181	4759.319333	930.235352	102.291382
-6471.942181	4759.319333	929.057617	52.939323
-6471.942181	4759.319333	927.879883	84.640976
-6471.942181	4759.319333	926.702148	102.815804
-6471.942181	4759.319333	925.523438	163.760864
-6471.942181	4759.319333	924.344727	150.430130
-6471.942181	4759.319333	923.166016	164.095093
-6471.942181	4759.319333	921.987305	74.277496
-6471.942181	4759.319333	920.807617	-40.243149
-6471.942181	4759.319333	919.627930	-39.432583
-6471.942181	4759.319333	919.497070	0.536647
-6471.942181	4759.319333	918.331055	-66.713890
-6471.942181	4759.319333	917.165039	7.676367
-6471.942181	4759.319333	915.999023	50.575100
-6471.942181	4759.319333	914.833008	62.001373
-6471.942181	4759.319333	913.666016	-9.693292
-6471.942181	4759.319333	912.499023	69.123749
-6471.942181	4759.319333	911.332031	85.035507
-6471.942181	4759.319333	910.165039	35.835224
-6471.942181	4759.319333	908.997070	56.240383
-6471.942181	4759.319333	907.830078	-1.907352
-6471.942181	4759.319333	906.661133	54.400188
-6471.942181	4759.319333	905.493164	-57.557297
-6471.942181	4759.319333	904.325195	88.452576
-6471.942181	4759.319333	903.156250	79.684891
-6471.942181	4759.319333	901.987305	-88.250664
-6471.942181	4759.319333	900.818359	12.853665
-6471.942181	4759.319333	899.648438	28.762753
-6471.942181	4759.319333	898.478516	69.312576
-6471.942181	4759.319333	897.308594	56.086639
-6471.942181	4759.319333	896.138672	-46.715832
-6471.942181	4759.319333	894.968750	34.133923
-6471.942181	4759.319333	893.797852	90.327766
-6471.942181	4759.319333	892.626953	74.877464
-6471.942181	4759.319333	891.456055	101.952682
-6471.942181	4759.319333	890.284180	151.392273
-6471.942181	4759.319333	889.113281	-38.530041
-6471.942181	4759.319333	887.941406	6.448638
-6471.942181	4759.319333	886.768555	116.253357
-6471.942181	4759.319333	885.596680	6.937629
-6471.942181	4759.319333	884.423828	58.590271
-6471.942181	4759.319333	883.250977	114.692749
-6471.942181	4759.319333	882.078125	85.878113
-6471.942181	4759.319333	880.905273	79.413200
-6471.942181	4759.319333	879.731445	52.854633
-6471.942181	4759.319333	878.557617	202.694611
-6471.942181	4759.319333	877.383789	53.349861
-6471.942181	4759.319333	876.209961	84.845291
-6471.942181	4759.319333	875.035156	109.636200
-6471.942181	4759.319333	873.860352	154.496750
-6471.942181	4759.319333	872.685547	110.122498
-6471.942181	4759.319333	871.510742	125.978020
-6471.942181	4759.319333	870.334961	119.533760
-6471.942181	4759.319333	869.159180	50.679607
-6471.942181	4759.319333	867.983398	30.884783
-6471.942181	4759.319333	866.807617	-53.516991
-6471.942181	4759.319333	865.630859	82.661522
-6471.942181	4759.319333	864.454102	102.968407
-6471.942181	4759.319333	863.277344	123.268631
-6471.942181	4759.319333	862.100586	14.434003
-6471.942181	4759.319333	860.922852	-0.866550
-6471.942181	4759.319333	859.745117	77.308846
-6471.942181	4759.319333	858.567383	-47.019085
-6471.942181	4759.319333	857.389648	60.055401
-6471.942181	4759.319333	856.210938	-39.749943
-6471.942181	4759.319333	855.032227	20.586826
-6471.942181	4759.319333	853.853516	-52.488758
-6471.942181	4759.319333	852.674805	-23.289228
-6471.942181	4759.319333	851.495117	-0.766257
-6471.942181	4759.319333	850.315430	63.962440
-6471.942181	4759.319333	849.135742	24.263779
-6471.942181	4759.319333	847.956055	4.570345
-6471.942181	4759.319333	846.775391	49.278851
-6471.942181	4759.319333	845.595703	-79.187187
-6471.942181	4759.319333	844.415039	-3.404663
-6471.942181	4759.319333	843.233398	-91.860435
-6471.942181	4759.319333	842.052734	72.639038
-6471.942181	4759.319333	840.871094	15.259765
-6471.942181	4759.319333	839.689453	-113.060318
-6471.942181	4759.319333	838.506836	-30.690363
-6471.942181	4759.319333	837.325195	-59.192223
-6471.942181	4759.319333	836.142578	-56.652561
-6471.942181	4759.319333	834.959961	-125.020172
-6471.942181	4759.319333	833.777344	45.903641
-6471.942181	4759.319333	832.593750	-29.099413
-6471.942181	4759.319333	831.410156	35.441311
-6471.942181	4759.319333	830.226563	-21.815296
-6471.942181	4759.319333	829.042969	-8.213271
-6471.942181	4759.319333	827.858398	20.876024
-6471.942181	4759.319333	826.673828	-7.574820
-6471.942181	4759.319333	825.489258	-31.589291
-6471.942181	4759.319333	824.304688	63.840622
-6471.942181	4759.319333	823.120117	33.188259
-6471.942181	4759.319333	821.934570	-23.980244
-6471.942181	4759.319333	820.749023	95.704918
-6471.942181	4759.319333	819.562500	18.659237
-6471.942181	4759.319333	818.376953	111.773239
-6471.942181	4759.319333	817.190430	61.264217
-6471.942181	4759.319333	816.003906	118.995117
-6471.942181	4759.319333	814.817383	123.708076
-6471.942181	4759.319333	813.629883	59.982906
-6471.942181	4759.319333	812.442383	97.814392
-6471.942181	4759.319333	811.254883	-16.633949
-6471.942181	4759.319333	810.067383	-69.259636
-6471.942181	4759.319333	808.878906	103.129936
-6471.942181	4759.319333	807.690430	8.599611
-6471.942181	4759.319333	806.501953	50.811691
-6471.942181	4759.319333	805.313477	-37.056152
-6471.942181	4759.319333	804.124023	-5.871873
-6471.942181	4759.319333	802.934570	34.112976
-6471.942181	4759.319333	801.745117	-7.433211
-6471.942181	4759.319333	800.555664	39.142094
-6471.942181	4759.319333	799.365234	118.730446
-6471.942181	4759.319333	798.175781	182.872513
-6471.942181	4759.319333	796.985352	147.931320
-6471.942181	4759.319333	795.793945	172.426056
-6471.942181	4759.319333	794.603516	146.300751
-6471.942181	4759.319333	793.412109	128.985748
-6471.942181	4759.319333	792.220703	80.884567
-6471.942181	4759.319333	791.028320	182.333313
-6471.942181	4759.319333	789.836914	77.077263
-6471.942181	4759.319333	788.644531	59.786530
-6471.942181	4759.319333	787.452148	-80.564362
-6471.942181	4759.319333	786.258789	-47.282833
-6471.942181	4759.319333	785.066406	10.146401
-6471.942181	4759.319333	783.873047	-66.420029
-6471.942181	4759.319333	782.679688	23.923569
-6471.942181	4759.319333	781.485352	57.150013
-6471.942181	4759.319333	780.291992	-58.891644
-6471.942181	4759.319333	779.097656	-60.776184
-6471.942181	4759.319333	777.903320	20.708479
-6471.942181	4759.319333	776.708008	-49.194084
-6471.942181	4759.319333	775.512695	-162.930725
-6471.942181	4759.319333	774.318359	-92.444862
-6471.942181	4759.319333	773.122070	26.238007
-6471.942181	4759.319333	771.926758	-61.150230
-6471.942181	4759.319333	770.730469	-56.471981
-6471.942181	4759.319333	769.534180	2.970935
-6471.942181	4759.319333	768.337891	-18.655056
-6471.942181	4759.319333	767.141602	67.028389
-6471.942181	4759.319333	765.944336	-35.614822
-6471.942181	4759.319333	764.747070	137.589813
-6471.942181	4759.319333	763.549805	52.476952
-6471.942181	4759.319333	762.351563	30.850172
-6471.942181	4759.319333	761.154297	-17.022467
-6471.942181	4759.319333	759.956055	24.794928
-6471.942181	4759.319333	758.757813	-1.195498
-6471.942181	4759.319333	757.558594	23.105503
-6471.942181	4759.319333	756.359375	102.036995
-6471.942181	4759.319333	755.160156	34.516392
-6471.942181	4759.319333	753.960938	89.372215
-6471.942181	4759.319333	752.761719	-13.075294
-6471.942181	4759.319333	751.561523	65.784317
-6471.942181	4759.319333	750.361328	74.735451
-6471.942181	4759.319333	749.160156	153.536743
-6471.942181	4759.319333	747.959961	120.989037
-6471.942181	4759.319333	746.758789	158.279602
-6471.942181	4759.319333	745.557617	119.191887
-6471.942181	4759.319333	744.356445	101.928192
-6471.942181	4759.319333	743.154297	167.537201
-6471.942181	4759.319333	741.952148	163.344330
-6471.942181	4759.319333	740.750000	50.156631
-6471.942181	4759.319333	739.547852	89.569000
-6471.942181	4759.319333	738.344727	52.698212
-6471.942181	4759.319333	737.142578	-12.482973
-6471.942181	4759.319333	735.939453	148.873550
-6471.942181	4759.319333	734.735352	138.130508
-6471.942181	4759.319333	733.532227	114.323402
-6471.942181	4759.319333	732.328125	131.878708
-6471.942181	4759.319333	731.124023	92.839920
-6471.942181	4759.319333	729.918945	3.770546
-6471.942181	4759.319333	728.714844	154.014999
-6471.942181	4759.319333	727.509766	17.112976
-6471.942181	4759.319333	726.303711	41.167664
-6471.942181	4759.319333	725.098633	95.641426
-6471.942181	4759.319333	723.892578	74.015579
-6471.942181	4759.319333	722.686523	100.199615
-6471.942181	4759.319333	721.480469	74.225197
-6471.942181	4759.319333	720.274414	91.698212
-6471.942181	4759.319333	719.067383	-18.969482
-6471.942181	4759.319333	717.860352	63.640175
-6471.942181	4759.319333	716.653320	72.403816
-6471.942181	4759.319333	715.445313	207.035049
-6471.942181	4759.319333	714.238281	26.976549
-6471.942181	4759.319333	713.030273	59.587246
-6471.942181	4759.319333	711.821289	-100.856331
-6471.942181	4759.319333	710.613281	-68.245476
-6471.942181	4759.319333	709.404297	-94.190750
-6471.942181	4759.319333	708.195313	-63.775051
-6471.942181	4759.319333	706.986328	-18.209127
-6471.942181	4759.319333	705.776367	-24.668331
-6471.942181	4759.319333	704.566406	38.186844
-6471.942181	4759.319333	703.356445	-22.439077
-6471.942181	4759.319333	702.146484	-11.591575
-6471.942181	4759.319333	700.935547	27.387241
-6471.942181	4759.319333	699.724609	-35.383072
-6471.942181	4759.319333	698.513672	-0.757803
-6471.942181	4759.319333	697.302734	-2.933303
-6471.942181	4759.319333	696.090820	16.515629
-6471.942181	4759.319333	694.878906	-20.277996
-6471.942181	4759.319333	693.666992	-85.171173
-6471.942181	4759.319333	692.455078	9.918320
-6471.942181	4759.319333	691.242188	102.799202
-6471.942181	4759.319333	690.029297	171.865005
-6471.942181	4759.319333	688.816406	59.429661
-6471.942181	4759.319333	687.602539	31.267677
-6471.942181	4759.319333	686.389648	-48.715828
-6471.942181	4759.319333	685.175781	24.610777
-6471.942181	4759.319333	683.960938	-29.451307
-6471.942181	4759.319333	682.747070	17.928118
-6471.942181	4759.319333	681.532227	37.231480
-6471.942181	4759.319333	680.317383	71.618492
-6471.942181	4759.319333	679.102539	4.619614
-6471.942181	4759.319333	677.886719	28.201725
-6471.942181	4759.319333	676.670898	-88.358505
-6471.942181	4759.319333	675.455078	58.068523
-6471.942181	4759.319333	674.239258	55.741302
-6471.942181	4759.319333	673.022461	36.171608
-6471.942181	4759.319333	671.805664	16.601725
-6471.942181	4759.319333	670.588867	61.635857
-6471.942181	4759.319333	669.372070	102.336464
-6471.942181	4759.319333	668.154297	91.349571
-6471.942181	4759.319333	666.936523	-27.247295
-6471.942181	4759.319333	665.718750	69.363937
-6471.942181	4759.319333	664.500977	54.062393
-6471.942181	4759.319333	663.282227	92.527512
-6471.942181	4759.319333	662.063477	51.406433
-6471.942181	4759.319333	660.844727	68.339752
-6471.942181	4759.319333	659.625000	78.809143
-6471.942181	4759.319333	658.405273	78.520363
-6471.942181	4759.319333	657.185547	-35.647221
-6471.942181	4759.319333	655.965820	-12.301541
-6471.942181	4759.319333	654.745117	-27.630869
-6471.942181	4759.319333	653.525391	-2.167678
-6471.942181	4759.319333	652.303711	27.569401
-6471.942181	4759.319333	651.083008	-15.686928
-6471.942181	4759.319333	649.861328	9.730496
-6471.942181	4759.319333	648.640625	-12.068894
-6471.942181	4759.319333	647.417969	-31.723196
-6471.942181	4759.319333	646.196289	-77.111427
-6471.942181	4759.319333	644.973633	42.594650
-6471.942181	4759.319333	643.750977	-11.382505
-6471.942181	4759.319333	642.528320	112.526680
-6471.942181	4759.319333	641.305664	43.540707
-6471.942181	4759.319333	640.082031	-89.689163
-6471.942181	4759.319333	638.858398	12.713126
-6471.942181	4759.319333	637.634766	3.718767
-6471.942181	4759.319333	636.410156	58.942383
-6471.942181	4759.319333	635.185547	52.063770
-6471.942181	4759.319333	633.960938	130.773605
-6471.942181	4759.319333	632.736328	-87.938362
-6471.942181	4759.319333	631.510742	-11.389905
-6471.942181	4759.319333	630.285156	-52.501286
-6471.942181	4759.319333	629.059570	23.988733
-6471.942181	4759.319333	627.833984	106.849449
-6471.942181	4759.319333	626.607422	42.202522
-6471.942181	4759.319333	625.380859	1.077181
-6471.942181	4759.319333	624.154297	45.409966
-6471.942181	4759.319333	622.927734	8.554169
-6471.942181	4759.319333	621.700195	151.073563
-6471.942181	4759.319333	620.472656	65.090179
-6471.942181	4759.319333	619.245117	58.107960
-6471.942181	4759.319333	618.016602	-27.837914
-6471.942181	4759.319333	616.788086	86.795288
-6471.942181	4759.319333	615.559570	56.321301
-6471.942181	4759.319333	614.331055	59.973076
-6471.942181	4759.319333	613.101563	-64.316277
-6471.942181	4759.319333	611.872070	-3.102635
-6471.942181	4759.319333	610.642578	-14.386937
-6471.942181	4759.319333	609.413086	-81.076866
-6471.942181	4759.319333	608.182617	52.506271
-6471.942181	4759.319333	606.952148	11.371095
-6471.942181	4759.319333	605.721680	46.904846
-6471.942181	4759.319333	604.491211	22.802385
-6471.942181	4759.319333	603.259766	-24.712927
-6471.942181	4759.319333	602.028320	12.906858
-6471.942181	4759.319333	600.796875	18.587076
-6471.942181	4759.319333	599.564453	83.816933
-6471.942181	4759.319333	598.332031	219.192749
-6471.942181	4759.319333	597.099609	105.727020
-6471.942181	4759.319333	595.867188	41.194695
-6471.942181	4759.319333	594.633789	61.696285
-6471.942181	4759.319333	593.400391	60.931168
-6471.942181	4759.319333	592.166992	100.522682
-6471.942181	4759.319333	590.933594	142.212830
-6471.942181	4759.319333	589.699219	132.910934
-6471.942181	4759.319333	588.464844	45.049057
-6471.942181	4759.319333	587.230469	97.312088
-6471.942181	4759.319333	585.995117	26.456003
-6471.942181	4759.319333	584.760742	112.631828
-6471.942181	4759.319333	583.525391	192.398849
-6471.942181	4759.319333	582.289063	231.827164
-6471.942181	4759.319333	581.053711	177.932587
-6471.942181	4759.319333	579.817383	191.891296
-6471.942181	4759.319333	578.581055	246.106384
-6471.942181	4759.319333	577.343750	262.147278
-6471.942181	4759.319333	576.107422	337.493958
-6471.942181	4759.319333	574.870117	355.610626
-6471.942181	4759.319333	573.631836	246.649918
-6471.942181	4759.319333	572.394531	103.852356
-6471.942181	4759.319333	571.156250	164.319077
-6471.942181	4759.319333	569.917969	99.888527
-6471.942181	4759.319333	568.679688	56.636681
-6471.942181	4759.319333	567.440430	74.743034
-6471.942181	4759.319333	566.202148	39.959858
-6471.942181	4759.319333	564.961914	72.848206
-6471.942181	4759.319333	563.722656	97.259003
-6471.942181	4759.319333	562.482422	98.401993
-6471.942181	4759.319333	561.243164	-10.347714
-6471.942181	4759.319333	560.001953	-21.873720
-6471.942181	4759.319333	558.761719	-8.054266
-6471.942181	4759.319333	557.520508	9.975355
-6471.942181	4759.319333	556.279297	-20.571375
-6471.942181	4759.319333	555.038086	20.658869
-6471.942181	4759.319333	553.795898	-7.780951
-6471.942181	4759.319333	552.554688	-86.855736
-6471.942181	4759.319333	551.311523	-94.179176
-6471.942181	4759.319333	550.069336	-10.814483
-6471.942181	4759.319333	548.826172	2.921826
-6471.942181	4759.319333	547.583984	-80.331841
-6471.942181	4759.319333	546.339844	9.278763
-6471.942181	4759.319333	545.096680	-73.954521
-6471.942181	4759.319333	543.852539	-18.106817
-6471.942181	4759.319333	542.608398	-19.162594
-6471.942181	4759.319333	541.364258	-37.072258
-6471.942181	4759.319333	540.119141	16.605749
-6471.942181	4759.319333	538.875000	-108.674431
-6471.942181	4759.319333	537.628906	-12.925611
-6471.942181	4759.319333	536.383789	-5.598058
-6471.942181	4759.319333	535.137695	-69.806038
-6471.942181	4759.319333	533.892578	126.809410
-6471.942181	4759.319333	532.645508	33.147987
-6471.942181	4759.319333	531.399414	-10.023231
-6471.942181	4759.319333	530.152344	-69.997765
-6471.942181	4759.319333	528.905273	0.336128
-6471.942181	4759.319333	527.658203	20.209646
-6471.942181	4759.319333	526.410156	12.760798
-6471.942181	4759.319333	525.163086	83.012390
-6471.942181	4759.319333	523.914063	4.152104
-6471.942181	4759.319333	522.666016	-11.704783
-6471.942181	4759.319333	521.416992	62.683762
-6471.942181	4759.319333	520.167969	95.068153
-6471.942181	4759.319333	518.918945	58.203484
-6471.942181	4759.319333	517.669922	107.340950
-6471.942181	4759.319333	516.419922	43.215397
-6471.942181	4759.319333	515.169922	167.794525
-6471.942181	4759.319333	513.919922	51.269192
-6471.942181	4759.319333	512.668945	50.043903
-6471.942181	4759.319333	511.417969	-45.468834
-6471.942181	4759.319333	510.166992	14.059045
-6471.942181	4759.319333	508.916016	88.213882
-6471.942181	4759.319333	507.664063	32.514633
-6471.942181	4759.319333	506.412109	-23.167944
-6471.942181	4759.319333	505.160156	-80.926720
-6471.942181	4759.319333	503.907227	-15.214953
-6471.942181	4759.319333	502.655273	-24.850094
-6471.942181	4759.319333	501.402344	-95.143837
-6471.942181	4759.319333	500.148438	-111.047508
-6471.942181	4759.319333	498.895508	-57.960827
-6471.942181	4759.319333	497.641602	-69.701408
-6471.942181	4759.319333	496.387695	-54.278645
-6471.942181	4759.319333	495.132813	19.628517
-6471.942181	4759.319333	493.878906	7.853278
-6471.942181	4759.319333	492.624023	64.990532
-6471.942181	4759.319333	491.368164	28.136488
-6471.942181	4759.319333	490.113281	43.476906
-6471.942181	4759.319333	488.857422	37.930080
-6471.942181	4759.319333	487.601563	99.146500
-6471.942181	4759.319333	486.344727	106.086517
-6471.942181	4759.319333	485.088867	67.128983
-6471.942181	4759.319333	483.832031	-1.016385
-6471.942181	4759.319333	482.575195	1.739599
-6471.942181	4759.319333	481.317383	29.494640
-6471.942181	4759.319333	480.059570	153.085236
-6471.942181	4759.319333	478.801758	-2.570244
-6471.942181	4759.319333	477.543945	-89.432083
-6471.942181	4759.319333	476.285156	-22.161455
-6471.942181	4759.319333	475.027344	67.971115
-6471.942181	4759.319333	473.767578	-68.848793
-6471.942181	4759.319333	472.508789	44.120449
-6471.942181	4759.319333	471.249023	-3.191314
-6471.942181	4759.319333	469.989258	63.919304
-6471.942181	4759.319333	468.729492	118.507034
-6471.942181	4759.319333	467.469727	-59.837025
-6471.942181	4759.319333	466.208984	32.142723
-6471.942181	4759.319333	464.948242	43.004864
-6471.942181	4759.319333	463.686523	-18.887152
-6471.942181	4759.319333	462.425781	-28.829180
-6471.942181	4759.319333	461.164063	15.220347
-6471.942181	4759.319333	459.901367	-32.143967
-6471.942181	4759.319333	458.639648	-27.599554
-6471.942181	4759.319333	457.376953	-25.153814
-6471.942181	4759.319333	456.114258	39.531330
-6471.942181	4759.319333	454.851563	17.020895
-6471.942181	4759.319333	453.587891	-34.545097
-6471.942181	4759.319333	452.324219	-77.815407
-6471.942181	4759.319333	451.060547	5.396978
-6471.942181	4759.319333	449.796875	-69.007561
-6471.942181	4759.319333	448.532227	20.334951
-6471.942181	4759.319333	447.267578	-110.042152
-6471.942181	4759.319333	446.002930	43.443325
-6471.942181	4759.319333	444.737305	-16.512760
-6471.942181	4759.319333	443.471680	31.214472
-6471.942181	4759.319333	442.206055	80.962250
-6471.942181	4759.319333	440.940430	12.669088
-6471.942181	4759.319333	439.673828	76.823395
-6471.942181	4759.319333	438.407227	126.434036
-6471.942181	4759.319333	437.140625	130.479736
-6471.942181	4759.319333	435.873047	39.351551
-6471.942181	4759.319333	434.605469	47.478756
-6471.942181	4759.319333	433.337891	86.575325
-6471.942181	4759.319333	432.070313	7.806866
-6471.942181	4759.319333	430.801758	-35.839123
-6471.942181	4759.319333	429.533203	102.297318
-6471.942181	4759.319333	428.264648	15.192485
-6471.942181	4759.319333	426.996094	82.961555
-6471.942181	4759.319333	425.726563	30.908422
-6471.942181	4759.319333	424.457031	63.463039
-6471.942181	4759.319333	423.186523	60.871773
-6471.942181	4759.319333	421.916992	128.385712
-6471.942181	4759.319333	420.646484	140.122635
-6471.942181	4759.319333	419.375977	230.173126
-6471.942181	4759.319333	418.104492	62.389229
-6471.942181	4759.319333	416.833008	22.434986
-6471.942181	4759.319333	415.561523	165.873245
-6471.942181	4759.319333	414.290039	86.648369
-6471.942181	4759.319333	413.017578	-2.904802
-6471.942181	4759.319333	411.746094	47.580132
-6471.942181	4759.319333	410.472656	135.041977
-6471.942181	4759.319333	409.200195	135.933319
-6471.942181	4759.319333	407.926758	124.404564
-6471.942181	4759.319333	406.653320	75.769211
-6471.942181	4759.319333	405.379883	208.139526
-6471.942181	4759.319333	404.105469	112.049133
-6471.942181	4759.319333	402.831055	48.829567
-6471.942181	4759.319333	401.556641	180.890335
-6471.942181	4759.319333	400.282227	72.300766
-6471.942181	4759.319333	399.006836	52.048145
-6471.942181	4759.319333	397.731445	19.390549
-6471.942181	4759.319333	396.456055	224.962357
-6471.942181	4759.319333	395.179688	159.240219
-6471.942181	4759.319333	393.903320	138.629944
-6471.942181	4759.319333	392.626953	171.311646
-6471.942181	4759.319333	391.350586	261.352814
-6471.942181	4759.319333	390.073242	244.542786
-6471.942181	4759.319333	388.795898	317.909760
-6471.942181	4759.319333	387.518555	479.341125
-6471.942181	4759.319333	386.240234	560.610657
-6471.942181	4759.319333	384.961914	779.104187
-6471.942181	4759.319333	383.683594	730.905334
-6471.942181	4759.319333	382.405273	797.377136
-6471.942181	4759.319333	381.125977	613.720337
-6471.942181	4759.319333	379.846680	649.212280
-6471.942181	4759.319333	378.567383	477.704163
-6471.942181	4759.319333	377.287109	269.278778
-6471.942181	4759.319333	376.006836	236.867996
-6471.942181	4759.319333	374.726563	153.164948
-6471.942181	4759.319333	373.446289	136.884613
-6471.942181	4759.319333	372.165039	136.828766
-6471.942181	4759.319333	370.883789	122.306091
-6471.942181	4759.319333	369.602539	123.996475
-6471.942181	4759.319333	368.320313	51.922012
-6471.942181	4759.319333	367.039063	32.868652
-6471.942181	4759.319333	365.755859	154.659576
-6471.942181	4759.319333	364.473633	-32.288158
-6471.942181	4759.319333	363.190430	93.206573
-6471.942181	4759.319333	361.907227	79.592613
-6471.942181	4759.319333	360.624023	41.299980
-6471.942181	4759.319333	359.340820	41.623817
-6471.942181	4759.319333	358.056641	-41.928928
-6471.942181	4759.319333	356.772461	13.113712
-6471.942181	4759.319333	355.487305	12.843149
-6471.942181	4759.319333	354.202148	67.436531
-6471.942181	4759.319333	352.916992	-47.457455
-6471.942181	4759.319333	351.631836	-42.232208
-6471.942181	4759.319333	350.346680	-43.345432
-6471.942181	4759.319333	349.060547	20.519297
-6471.942181	4759.319333	347.774414	16.889515
-6471.942181	4759.319333	346.487305	-17.538309
-6471.942181	4759.319333	345.200195	-66.450378
-6471.942181	4759.319333	343.913086	-97.266357
-6471.942181	4759.319333	342.625977	-48.934566
-6471.942181	4759.319333	341.338867	13.361209
-6471.942181	4759.319333	340.050781	83.493179
-6471.942181	4759.319333	338.762695	80.086067
-6471.942181	4759.319333	337.473633	198.423050
-6471.942181	4759.319333	336.184570	273.719543
-6471.942181	4759.319333	334.895508	143.360336
-6471.942181	4759.319333	333.606445	175.359604
-6471.942181	4759.319333	332.317383	133.883118
-6471.942181	4759.319333	331.027344	75.848061
-6471.942181	4759.319333	329.736328	11.413828
-6471.942181	4759.319333	328.446289	66.503105
-6471.942181	4759.319333	327.155273	40.009853
-6471.942181	4759.319333	325.864258	27.393719
-6471.942181	4759.319333	324.573242	-48.480156
-6471.942181	4759.319333	323.281250	-23.242060
-6471.942181	4759.319333	321.989258	157.814575
-6471.942181	4759.319333	320.697266	-103.706276
-6471.942181	4759.319333	319.405273	-132.317215
-6471.942181	4759.319333	318.112305	-45.769115
-6471.942181	4759.319333	316.819336	56.554756
-6471.942181	4759.319333	315.526367	6.450681
-6471.942181	4759.319333	314.232422	-68.373146
-6471.942181	4759.319333	312.938477	28.569828
-6471.942181	4759.319333	311.644531	21.759506
-6471.942181	4759.319333	310.349609	-38.145958
-6471.942181	4759.319333	309.054688	-11.444692
-6471.942181	4759.319333	307.759766	45.134464
-6471.942181	4759.319333	306.464844	111.329552
-6471.942181	4759.319333	305.168945	148.676559
-6471.942181	4759.319333	303.873047	268.427094
-6471.942181	4759.319333	302.577148	193.517471
-6471.942181	4759.319333	301.281250	118.124207
-6471.942181	4759.319333	299.984375	159.438080
