#X		#Y		#Wave		#Intensity
-7427.097713	4218.333167	1999.946289	-105.247261
-7427.097713	4218.333167	1998.981445	-42.244614
-7427.097713	4218.333167	1998.017578	26.434839
-7427.097713	4218.333167	1997.052734	32.904850
-7427.097713	4218.333167	1996.088867	1.976272
-7427.097713	4218.333167	1995.124023	-11.819866
-7427.097713	4218.333167	1994.159180	-201.675125
-7427.097713	4218.333167	1993.193359	-20.226831
-7427.097713	4218.333167	1992.228516	89.148720
-7427.097713	4218.333167	1991.262695	32.437904
-7427.097713	4218.333167	1990.296875	133.948654
-7427.097713	4218.333167	1989.331055	91.716408
-7427.097713	4218.333167	1988.365234	-133.756668
-7427.097713	4218.333167	1987.398438	48.808746
-7427.097713	4218.333167	1986.432617	-75.525414
-7427.097713	4218.333167	1985.465820	-4.643321
-7427.097713	4218.333167	1984.499023	105.605255
-7427.097713	4218.333167	1983.532227	-53.758011
-7427.097713	4218.333167	1982.565430	122.873886
-7427.097713	4218.333167	1981.597656	62.099541
-7427.097713	4218.333167	1980.629883	-100.077026
-7427.097713	4218.333167	1979.662109	-74.622803
-7427.097713	4218.333167	1978.694336	-108.576675
-7427.097713	4218.333167	1977.726563	7.958448
-7427.097713	4218.333167	1976.758789	-171.890961
-7427.097713	4218.333167	1975.790039	225.721863
-7427.097713	4218.333167	1974.821289	245.534134
-7427.097713	4218.333167	1973.852539	94.996796
-7427.097713	4218.333167	1972.883789	134.338486
-7427.097713	4218.333167	1971.915039	-21.266388
-7427.097713	4218.333167	1970.945313	81.985977
-7427.097713	4218.333167	1969.975586	130.867630
-7427.097713	4218.333167	1969.005859	95.833939
-7427.097713	4218.333167	1968.036133	117.404190
-7427.097713	4218.333167	1967.066406	94.531151
-7427.097713	4218.333167	1966.096680	110.998596
-7427.097713	4218.333167	1965.125977	9.156227
-7427.097713	4218.333167	1964.155273	55.027130
-7427.097713	4218.333167	1963.184570	152.511536
-7427.097713	4218.333167	1962.213867	102.194168
-7427.097713	4218.333167	1961.242188	34.598495
-7427.097713	4218.333167	1960.271484	112.147720
-7427.097713	4218.333167	1959.299805	98.575890
-7427.097713	4218.333167	1958.328125	-94.611023
-7427.097713	4218.333167	1957.356445	-66.442902
-7427.097713	4218.333167	1956.384766	160.830582
-7427.097713	4218.333167	1955.412109	-5.376754
-7427.097713	4218.333167	1954.439453	93.888786
-7427.097713	4218.333167	1953.467773	111.978012
-7427.097713	4218.333167	1952.495117	112.817093
-7427.097713	4218.333167	1951.521484	-31.324545
-7427.097713	4218.333167	1950.548828	-57.553146
-7427.097713	4218.333167	1949.575195	46.340763
-7427.097713	4218.333167	1948.601563	-186.199982
-7427.097713	4218.333167	1947.627930	-170.755692
-7427.097713	4218.333167	1946.654297	-157.799362
-7427.097713	4218.333167	1945.680664	39.163754
-7427.097713	4218.333167	1944.706055	69.195862
-7427.097713	4218.333167	1943.732422	50.139450
-7427.097713	4218.333167	1942.757813	165.951736
-7427.097713	4218.333167	1941.783203	46.309235
-7427.097713	4218.333167	1940.807617	81.139580
-7427.097713	4218.333167	1939.833008	-9.060994
-7427.097713	4218.333167	1938.857422	50.243969
-7427.097713	4218.333167	1937.881836	-8.093863
-7427.097713	4218.333167	1936.906250	-139.911285
-7427.097713	4218.333167	1935.930664	-19.414272
-7427.097713	4218.333167	1934.955078	-21.410442
-7427.097713	4218.333167	1933.978516	23.104084
-7427.097713	4218.333167	1933.001953	74.941719
-7427.097713	4218.333167	1932.025391	38.648731
-7427.097713	4218.333167	1931.048828	183.444183
-7427.097713	4218.333167	1930.072266	71.299042
-7427.097713	4218.333167	1929.094727	164.663727
-7427.097713	4218.333167	1928.118164	103.924179
-7427.097713	4218.333167	1927.140625	30.980921
-7427.097713	4218.333167	1926.163086	24.076237
-7427.097713	4218.333167	1925.184570	39.174072
-7427.097713	4218.333167	1924.207031	103.151352
-7427.097713	4218.333167	1923.228516	98.694633
-7427.097713	4218.333167	1922.250000	3.861441
-7427.097713	4218.333167	1921.271484	-29.867863
-7427.097713	4218.333167	1920.292969	46.314198
-7427.097713	4218.333167	1919.314453	-77.726357
-7427.097713	4218.333167	1918.334961	52.157825
-7427.097713	4218.333167	1917.355469	-57.174213
-7427.097713	4218.333167	1916.375977	111.724495
-7427.097713	4218.333167	1915.396484	-173.209839
-7427.097713	4218.333167	1914.416992	27.384726
-7427.097713	4218.333167	1913.436523	-30.595556
-7427.097713	4218.333167	1912.457031	55.324154
-7427.097713	4218.333167	1911.476563	114.409378
-7427.097713	4218.333167	1910.496094	129.613556
-7427.097713	4218.333167	1909.515625	-37.942741
-7427.097713	4218.333167	1908.534180	72.338821
-7427.097713	4218.333167	1907.552734	72.975021
-7427.097713	4218.333167	1906.572266	68.758896
-7427.097713	4218.333167	1905.590820	37.773384
-7427.097713	4218.333167	1904.608398	38.466114
-7427.097713	4218.333167	1903.626953	-138.518753
-7427.097713	4218.333167	1902.644531	-249.710068
-7427.097713	4218.333167	1901.663086	1.728109
-7427.097713	4218.333167	1900.680664	-75.349266
-7427.097713	4218.333167	1899.698242	-103.729012
-7427.097713	4218.333167	1898.714844	-166.129257
-7427.097713	4218.333167	1897.732422	109.496071
-7427.097713	4218.333167	1896.749023	-113.330475
-7427.097713	4218.333167	1895.765625	69.856529
-7427.097713	4218.333167	1894.782227	-26.472160
-7427.097713	4218.333167	1893.798828	-47.423927
-7427.097713	4218.333167	1892.814453	-70.778450
-7427.097713	4218.333167	1891.831055	-55.242947
-7427.097713	4218.333167	1890.846680	-71.262550
-7427.097713	4218.333167	1889.862305	0.147463
-7427.097713	4218.333167	1888.877930	35.139359
-7427.097713	4218.333167	1887.892578	-19.662243
-7427.097713	4218.333167	1886.908203	-47.729515
-7427.097713	4218.333167	1885.922852	-155.828766
-7427.097713	4218.333167	1884.937500	143.633911
-7427.097713	4218.333167	1883.952148	81.656380
-7427.097713	4218.333167	1882.965820	24.568356
-7427.097713	4218.333167	1881.980469	-158.537201
-7427.097713	4218.333167	1880.994141	-74.941109
-7427.097713	4218.333167	1880.007813	86.188599
-7427.097713	4218.333167	1879.021484	84.944458
-7427.097713	4218.333167	1878.035156	-5.911096
-7427.097713	4218.333167	1877.047852	-21.636219
-7427.097713	4218.333167	1876.061523	-25.227142
-7427.097713	4218.333167	1875.074219	60.777634
-7427.097713	4218.333167	1874.086914	47.521416
-7427.097713	4218.333167	1873.098633	-43.159210
-7427.097713	4218.333167	1872.111328	6.555738
-7427.097713	4218.333167	1871.123047	27.234295
-7427.097713	4218.333167	1870.135742	-17.383736
-7427.097713	4218.333167	1869.147461	8.159381
-7427.097713	4218.333167	1868.158203	-9.815408
-7427.097713	4218.333167	1867.169922	-155.891663
-7427.097713	4218.333167	1866.180664	-21.530554
-7427.097713	4218.333167	1865.192383	35.467491
-7427.097713	4218.333167	1864.203125	-134.655518
-7427.097713	4218.333167	1863.213867	98.706306
-7427.097713	4218.333167	1862.223633	-153.457062
-7427.097713	4218.333167	1861.234375	48.454163
-7427.097713	4218.333167	1860.244141	-133.566956
-7427.097713	4218.333167	1859.253906	75.526810
-7427.097713	4218.333167	1858.263672	55.284767
-7427.097713	4218.333167	1857.273438	-107.300392
-7427.097713	4218.333167	1856.282227	29.327726
-7427.097713	4218.333167	1855.291992	35.666191
-7427.097713	4218.333167	1854.300781	-134.032059
-7427.097713	4218.333167	1853.309570	36.304466
-7427.097713	4218.333167	1852.317383	122.211693
-7427.097713	4218.333167	1851.326172	-148.611267
-7427.097713	4218.333167	1850.333984	122.860031
-7427.097713	4218.333167	1849.342773	-106.891129
-7427.097713	4218.333167	1848.350586	36.815983
-7427.097713	4218.333167	1847.357422	353.874390
-7427.097713	4218.333167	1846.365234	-58.778580
-7427.097713	4218.333167	1845.372070	53.553444
-7427.097713	4218.333167	1844.379883	242.872192
-7427.097713	4218.333167	1843.386719	23.006889
-7427.097713	4218.333167	1842.393555	-95.717186
-7427.097713	4218.333167	1841.399414	187.347229
-7427.097713	4218.333167	1840.406250	90.286758
-7427.097713	4218.333167	1839.412109	17.309568
-7427.097713	4218.333167	1838.417969	146.320984
-7427.097713	4218.333167	1837.423828	-5.966651
-7427.097713	4218.333167	1836.429688	175.873825
-7427.097713	4218.333167	1835.434570	6.813872
-7427.097713	4218.333167	1834.440430	-75.693665
-7427.097713	4218.333167	1833.445313	53.203888
-7427.097713	4218.333167	1832.450195	76.380608
-7427.097713	4218.333167	1831.454102	154.769867
-7427.097713	4218.333167	1830.458984	223.523727
-7427.097713	4218.333167	1829.462891	229.838593
-7427.097713	4218.333167	1828.466797	70.562202
-7427.097713	4218.333167	1827.470703	79.291641
-7427.097713	4218.333167	1826.474609	68.821259
-7427.097713	4218.333167	1825.478516	89.526474
-7427.097713	4218.333167	1824.481445	-182.337112
-7427.097713	4218.333167	1823.484375	-10.567236
-7427.097713	4218.333167	1822.487305	7.717364
-7427.097713	4218.333167	1821.490234	287.215363
-7427.097713	4218.333167	1820.493164	10.690833
-7427.097713	4218.333167	1819.495117	88.822220
-7427.097713	4218.333167	1818.498047	-48.658169
-7427.097713	4218.333167	1817.500000	89.302368
-7427.097713	4218.333167	1816.500977	33.254040
-7427.097713	4218.333167	1815.502930	-20.390106
-7427.097713	4218.333167	1814.504883	107.874519
-7427.097713	4218.333167	1813.505859	-22.367464
-7427.097713	4218.333167	1812.506836	-56.873642
-7427.097713	4218.333167	1811.507813	21.046864
-7427.097713	4218.333167	1810.508789	-23.051781
-7427.097713	4218.333167	1809.508789	203.052704
-7427.097713	4218.333167	1808.508789	-180.580811
-7427.097713	4218.333167	1807.508789	-26.275091
-7427.097713	4218.333167	1806.508789	159.024048
-7427.097713	4218.333167	1805.508789	50.340504
-7427.097713	4218.333167	1804.508789	199.684525
-7427.097713	4218.333167	1803.507813	98.161140
-7427.097713	4218.333167	1802.506836	80.236565
-7427.097713	4218.333167	1801.505859	-80.954903
-7427.097713	4218.333167	1800.504883	68.219048
-7427.097713	4218.333167	1799.502930	-9.419804
-7427.097713	4218.333167	1798.501953	-17.848450
-7427.097713	4218.333167	1797.500000	73.904236
-7427.097713	4218.333167	1796.498047	-68.161186
-7427.097713	4218.333167	1795.496094	4.441155
-7427.097713	4218.333167	1794.493164	57.915752
-7427.097713	4218.333167	1793.491211	159.027069
-7427.097713	4218.333167	1792.488281	-16.413126
-7427.097713	4218.333167	1791.485352	48.877098
-7427.097713	4218.333167	1790.482422	-35.986465
-7427.097713	4218.333167	1789.478516	29.228907
-7427.097713	4218.333167	1788.475586	299.222504
-7427.097713	4218.333167	1787.471680	-47.657955
-7427.097713	4218.333167	1786.467773	191.241653
-7427.097713	4218.333167	1785.463867	-103.174751
-7427.097713	4218.333167	1784.459961	-45.282555
-7427.097713	4218.333167	1783.455078	-32.651875
-7427.097713	4218.333167	1782.450195	-22.433126
-7427.097713	4218.333167	1781.445313	61.486610
-7427.097713	4218.333167	1780.440430	-6.852980
-7427.097713	4218.333167	1779.435547	50.819233
-7427.097713	4218.333167	1778.429688	148.849045
-7427.097713	4218.333167	1777.424805	120.846542
-7427.097713	4218.333167	1776.418945	40.543694
-7427.097713	4218.333167	1775.413086	-11.250695
-7427.097713	4218.333167	1774.406250	1.076660
-7427.097713	4218.333167	1773.400391	91.742561
-7427.097713	4218.333167	1772.393555	65.989502
-7427.097713	4218.333167	1771.386719	37.839321
-7427.097713	4218.333167	1770.379883	-11.694581
-7427.097713	4218.333167	1769.373047	-44.631046
-7427.097713	4218.333167	1768.365234	107.477058
-7427.097713	4218.333167	1767.358398	285.592041
-7427.097713	4218.333167	1766.350586	212.193420
-7427.097713	4218.333167	1765.342773	48.679203
-7427.097713	4218.333167	1764.334961	-112.437157
-7427.097713	4218.333167	1763.326172	25.143881
-7427.097713	4218.333167	1762.318359	210.039291
-7427.097713	4218.333167	1761.309570	193.416763
-7427.097713	4218.333167	1760.300781	20.406937
-7427.097713	4218.333167	1759.291016	141.132523
-7427.097713	4218.333167	1758.282227	36.803566
-7427.097713	4218.333167	1757.272461	62.699799
-7427.097713	4218.333167	1756.262695	150.098541
-7427.097713	4218.333167	1755.252930	10.212520
-7427.097713	4218.333167	1754.243164	-53.933048
-7427.097713	4218.333167	1753.233398	49.889225
-7427.097713	4218.333167	1752.222656	42.454189
-7427.097713	4218.333167	1751.211914	56.270817
-7427.097713	4218.333167	1750.201172	77.137802
-7427.097713	4218.333167	1749.190430	-91.170563
-7427.097713	4218.333167	1748.179688	69.097549
-7427.097713	4218.333167	1747.167969	-11.785087
-7427.097713	4218.333167	1746.156250	46.728790
-7427.097713	4218.333167	1745.144531	199.674240
-7427.097713	4218.333167	1744.132813	-23.012281
-7427.097713	4218.333167	1743.121094	155.786316
-7427.097713	4218.333167	1742.108398	25.190321
-7427.097713	4218.333167	1741.095703	-69.987152
-7427.097713	4218.333167	1740.083008	-172.248123
-7427.097713	4218.333167	1739.070313	15.723777
-7427.097713	4218.333167	1738.057617	-96.027550
-7427.097713	4218.333167	1737.043945	238.016495
-7427.097713	4218.333167	1736.030273	220.513931
-7427.097713	4218.333167	1735.016602	217.125900
-7427.097713	4218.333167	1734.002930	138.264496
-7427.097713	4218.333167	1732.989258	14.613306
-7427.097713	4218.333167	1731.974609	91.265007
-7427.097713	4218.333167	1730.959961	116.016525
-7427.097713	4218.333167	1729.945313	84.185272
-7427.097713	4218.333167	1728.930664	139.466583
-7427.097713	4218.333167	1727.916016	-99.643394
-7427.097713	4218.333167	1726.900391	-20.888088
-7427.097713	4218.333167	1725.885742	34.264362
-7427.097713	4218.333167	1724.870117	6.987223
-7427.097713	4218.333167	1723.853516	-62.673641
-7427.097713	4218.333167	1722.837891	79.373421
-7427.097713	4218.333167	1721.822266	169.584198
-7427.097713	4218.333167	1720.805664	130.385010
-7427.097713	4218.333167	1719.789063	-73.412064
-7427.097713	4218.333167	1718.772461	-46.809864
-7427.097713	4218.333167	1717.754883	-20.262001
-7427.097713	4218.333167	1716.738281	-137.089447
-7427.097713	4218.333167	1715.720703	183.046524
-7427.097713	4218.333167	1714.703125	99.026543
-7427.097713	4218.333167	1713.685547	104.238434
-7427.097713	4218.333167	1712.667969	36.625706
-7427.097713	4218.333167	1711.649414	51.157433
-7427.097713	4218.333167	1710.630859	-44.664505
-7427.097713	4218.333167	1709.612305	-23.159271
-7427.097713	4218.333167	1708.593750	101.529755
-7427.097713	4218.333167	1707.575195	-36.580643
-7427.097713	4218.333167	1706.555664	177.100540
-7427.097713	4218.333167	1705.536133	-31.392374
-7427.097713	4218.333167	1704.516602	48.507214
-7427.097713	4218.333167	1703.497070	151.778030
-7427.097713	4218.333167	1702.477539	67.500381
-7427.097713	4218.333167	1701.457031	90.989738
-7427.097713	4218.333167	1700.437500	1.998598
-7427.097713	4218.333167	1699.416992	-37.815952
-7427.097713	4218.333167	1698.395508	72.206398
-7427.097713	4218.333167	1697.375000	-98.782249
-7427.097713	4218.333167	1696.354492	123.499382
-7427.097713	4218.333167	1695.333008	-45.168518
-7427.097713	4218.333167	1694.311523	55.272213
-7427.097713	4218.333167	1693.290039	-19.812908
-7427.097713	4218.333167	1692.267578	136.644318
-7427.097713	4218.333167	1691.246094	138.674316
-7427.097713	4218.333167	1690.223633	203.790146
-7427.097713	4218.333167	1689.201172	65.479843
-7427.097713	4218.333167	1688.178711	81.440010
-7427.097713	4218.333167	1687.155273	162.781693
-7427.097713	4218.333167	1686.132813	157.624512
-7427.097713	4218.333167	1685.109375	159.439270
-7427.097713	4218.333167	1684.085938	212.598953
-7427.097713	4218.333167	1683.062500	233.017960
-7427.097713	4218.333167	1682.039063	346.774719
-7427.097713	4218.333167	1681.014648	301.740936
-7427.097713	4218.333167	1679.990234	298.696930
-7427.097713	4218.333167	1678.965820	311.955566
-7427.097713	4218.333167	1677.941406	455.805267
-7427.097713	4218.333167	1676.916992	287.059906
-7427.097713	4218.333167	1675.891602	139.329269
-7427.097713	4218.333167	1674.866211	243.404648
-7427.097713	4218.333167	1673.840820	396.357697
-7427.097713	4218.333167	1672.815430	362.794250
-7427.097713	4218.333167	1671.790039	240.678589
-7427.097713	4218.333167	1670.763672	342.206390
-7427.097713	4218.333167	1669.737305	303.925842
-7427.097713	4218.333167	1668.710938	340.147949
-7427.097713	4218.333167	1667.684570	376.330109
-7427.097713	4218.333167	1666.658203	344.968842
-7427.097713	4218.333167	1665.630859	413.659149
-7427.097713	4218.333167	1664.603516	345.018738
-7427.097713	4218.333167	1663.576172	413.631989
-7427.097713	4218.333167	1662.548828	565.927124
-7427.097713	4218.333167	1661.520508	464.661102
-7427.097713	4218.333167	1660.493164	361.091705
-7427.097713	4218.333167	1659.464844	343.541107
-7427.097713	4218.333167	1658.436523	456.122345
-7427.097713	4218.333167	1657.408203	475.693207
-7427.097713	4218.333167	1656.378906	432.502930
-7427.097713	4218.333167	1655.350586	333.567200
-7427.097713	4218.333167	1654.321289	385.591858
-7427.097713	4218.333167	1653.291992	430.610901
-7427.097713	4218.333167	1652.261719	382.729889
-7427.097713	4218.333167	1651.232422	488.035980
-7427.097713	4218.333167	1650.202148	572.392151
-7427.097713	4218.333167	1649.171875	408.452545
-7427.097713	4218.333167	1648.141602	522.909058
-7427.097713	4218.333167	1647.111328	551.494629
-7427.097713	4218.333167	1646.080078	473.385986
-7427.097713	4218.333167	1645.049805	543.664673
-7427.097713	4218.333167	1644.018555	685.745178
-7427.097713	4218.333167	1642.987305	709.569946
-7427.097713	4218.333167	1641.955078	439.118439
-7427.097713	4218.333167	1640.923828	620.470276
-7427.097713	4218.333167	1639.891602	685.930603
-7427.097713	4218.333167	1638.859375	640.205505
-7427.097713	4218.333167	1637.827148	548.183167
-7427.097713	4218.333167	1636.794922	835.784973
-7427.097713	4218.333167	1635.761719	759.927917
-7427.097713	4218.333167	1634.729492	621.623352
-7427.097713	4218.333167	1633.696289	747.070923
-7427.097713	4218.333167	1632.662109	916.397034
-7427.097713	4218.333167	1631.628906	872.910950
-7427.097713	4218.333167	1630.594727	704.580872
-7427.097713	4218.333167	1629.561523	746.660339
-7427.097713	4218.333167	1628.527344	650.044312
-7427.097713	4218.333167	1627.493164	648.192810
-7427.097713	4218.333167	1626.458008	930.476807
-7427.097713	4218.333167	1625.423828	718.372803
-7427.097713	4218.333167	1624.388672	748.809631
-7427.097713	4218.333167	1623.353516	876.199646
-7427.097713	4218.333167	1622.318359	747.305115
-7427.097713	4218.333167	1621.282227	768.463745
-7427.097713	4218.333167	1620.247070	755.003601
-7427.097713	4218.333167	1619.210938	951.477600
-7427.097713	4218.333167	1618.174805	677.330322
-7427.097713	4218.333167	1617.137695	726.137817
-7427.097713	4218.333167	1616.101563	968.605957
-7427.097713	4218.333167	1615.064453	1021.944031
-7427.097713	4218.333167	1614.027344	729.542786
-7427.097713	4218.333167	1612.990234	729.903870
-7427.097713	4218.333167	1611.953125	937.613647
-7427.097713	4218.333167	1610.916016	979.396301
-7427.097713	4218.333167	1609.877930	1152.425537
-7427.097713	4218.333167	1608.839844	715.218323
-7427.097713	4218.333167	1607.801758	1005.642273
-7427.097713	4218.333167	1606.763672	1024.360962
-7427.097713	4218.333167	1605.724609	930.311951
-7427.097713	4218.333167	1604.685547	1008.857666
-7427.097713	4218.333167	1603.646484	1126.482056
-7427.097713	4218.333167	1602.607422	1034.779297
-7427.097713	4218.333167	1601.568359	1035.092896
-7427.097713	4218.333167	1600.528320	1060.694214
-7427.097713	4218.333167	1599.489258	946.089783
-7427.097713	4218.333167	1598.449219	911.961731
-7427.097713	4218.333167	1597.408203	1029.489258
-7427.097713	4218.333167	1596.368164	1192.927979
-7427.097713	4218.333167	1595.327148	1308.074097
-7427.097713	4218.333167	1594.287109	1312.970337
-7427.097713	4218.333167	1593.246094	1329.347656
-7427.097713	4218.333167	1592.204102	1348.016235
-7427.097713	4218.333167	1591.163086	1421.773315
-7427.097713	4218.333167	1590.121094	1371.604980
-7427.097713	4218.333167	1589.079102	1502.693726
-7427.097713	4218.333167	1588.037109	1264.480713
-7427.097713	4218.333167	1586.995117	1287.788574
-7427.097713	4218.333167	1585.953125	1487.635498
-7427.097713	4218.333167	1584.910156	963.071472
-7427.097713	4218.333167	1583.867188	986.459595
-7427.097713	4218.333167	1582.824219	1234.402100
-7427.097713	4218.333167	1581.781250	1035.543945
-7427.097713	4218.333167	1580.737305	939.841553
-7427.097713	4218.333167	1579.693359	1036.551514
-7427.097713	4218.333167	1578.649414	1071.422363
-7427.097713	4218.333167	1577.605469	895.702820
-7427.097713	4218.333167	1576.561523	690.318115
-7427.097713	4218.333167	1575.516602	741.302673
-7427.097713	4218.333167	1574.472656	572.670227
-7427.097713	4218.333167	1573.427734	804.391602
-7427.097713	4218.333167	1572.381836	658.708557
-7427.097713	4218.333167	1571.336914	462.808441
-7427.097713	4218.333167	1570.291016	644.180786
-7427.097713	4218.333167	1569.246094	706.664063
-7427.097713	4218.333167	1568.200195	490.364258
-7427.097713	4218.333167	1567.153320	500.341431
-7427.097713	4218.333167	1566.107422	498.922272
-7427.097713	4218.333167	1565.060547	483.820251
-7427.097713	4218.333167	1564.013672	487.013336
-7427.097713	4218.333167	1562.966797	437.726654
-7427.097713	4218.333167	1561.919922	687.472412
-7427.097713	4218.333167	1560.872070	524.115540
-7427.097713	4218.333167	1559.825195	527.401306
-7427.097713	4218.333167	1558.777344	553.517029
-7427.097713	4218.333167	1557.729492	420.010956
-7427.097713	4218.333167	1556.680664	494.069336
-7427.097713	4218.333167	1555.632813	388.039795
-7427.097713	4218.333167	1554.583984	507.716309
-7427.097713	4218.333167	1553.535156	308.349121
-7427.097713	4218.333167	1552.486328	557.918152
-7427.097713	4218.333167	1551.436523	493.067841
-7427.097713	4218.333167	1550.387695	362.234375
-7427.097713	4218.333167	1549.337891	299.787231
-7427.097713	4218.333167	1548.288086	317.075073
-7427.097713	4218.333167	1547.238281	252.448959
-7427.097713	4218.333167	1546.187500	203.805374
-7427.097713	4218.333167	1545.136719	193.892319
-7427.097713	4218.333167	1544.086914	311.406830
-7427.097713	4218.333167	1543.035156	274.247803
-7427.097713	4218.333167	1541.984375	323.548462
-7427.097713	4218.333167	1540.933594	134.159500
-7427.097713	4218.333167	1539.881836	283.543060
-7427.097713	4218.333167	1538.830078	273.829712
-7427.097713	4218.333167	1537.778320	236.890945
-7427.097713	4218.333167	1536.725586	181.826736
-7427.097713	4218.333167	1535.673828	385.737274
-7427.097713	4218.333167	1534.621094	421.568146
-7427.097713	4218.333167	1533.568359	144.128448
-7427.097713	4218.333167	1532.515625	388.891205
-7427.097713	4218.333167	1531.461914	386.231964
-7427.097713	4218.333167	1530.409180	345.046417
-7427.097713	4218.333167	1529.355469	421.872314
-7427.097713	4218.333167	1528.301758	550.872009
-7427.097713	4218.333167	1527.247070	437.226868
-7427.097713	4218.333167	1526.193359	443.830292
-7427.097713	4218.333167	1525.138672	434.601196
-7427.097713	4218.333167	1524.083984	325.703766
-7427.097713	4218.333167	1523.029297	425.342407
-7427.097713	4218.333167	1521.974609	305.247986
-7427.097713	4218.333167	1520.918945	250.921387
-7427.097713	4218.333167	1519.863281	217.038269
-7427.097713	4218.333167	1518.807617	509.226929
-7427.097713	4218.333167	1517.751953	153.973053
-7427.097713	4218.333167	1516.696289	63.685169
-7427.097713	4218.333167	1515.639648	177.111420
-7427.097713	4218.333167	1514.583008	77.892120
-7427.097713	4218.333167	1513.526367	21.730707
-7427.097713	4218.333167	1512.469727	44.781796
-7427.097713	4218.333167	1511.412109	160.562241
-7427.097713	4218.333167	1510.355469	224.357666
-7427.097713	4218.333167	1509.297852	-12.402971
-7427.097713	4218.333167	1508.240234	171.245514
-7427.097713	4218.333167	1507.181641	-42.728676
-7427.097713	4218.333167	1506.124023	-44.257092
-7427.097713	4218.333167	1505.065430	85.233109
-7427.097713	4218.333167	1504.006836	137.957901
-7427.097713	4218.333167	1502.948242	177.167557
-7427.097713	4218.333167	1501.888672	8.779717
-7427.097713	4218.333167	1500.830078	-15.080057
-7427.097713	4218.333167	1499.770508	-239.660736
-7427.097713	4218.333167	1498.710938	-137.059097
-7427.097713	4218.333167	1497.650391	-70.531189
-7427.097713	4218.333167	1496.590820	-301.579742
-7427.097713	4218.333167	1495.530273	-167.320572
-7427.097713	4218.333167	1494.469727	-102.926842
-7427.097713	4218.333167	1493.409180	-119.622917
-7427.097713	4218.333167	1492.348633	-43.897827
-7427.097713	4218.333167	1491.287109	-175.367691
-7427.097713	4218.333167	1490.225586	-41.009609
-7427.097713	4218.333167	1489.164063	-5.716908
-7427.097713	4218.333167	1488.102539	-152.714966
-7427.097713	4218.333167	1487.041016	-142.063171
-7427.097713	4218.333167	1485.978516	-88.613708
-7427.097713	4218.333167	1484.916016	-287.068573
-7427.097713	4218.333167	1483.853516	0.389816
-7427.097713	4218.333167	1482.791016	49.448158
-7427.097713	4218.333167	1481.727539	-112.796356
-7427.097713	4218.333167	1480.664063	-0.701192
-7427.097713	4218.333167	1479.600586	-115.546463
-7427.097713	4218.333167	1478.537109	66.257835
-7427.097713	4218.333167	1477.473633	-246.113327
-7427.097713	4218.333167	1476.409180	-50.702164
-7427.097713	4218.333167	1475.344727	39.107185
-7427.097713	4218.333167	1474.280273	133.373459
-7427.097713	4218.333167	1473.215820	95.317497
-7427.097713	4218.333167	1472.151367	-23.459969
-7427.097713	4218.333167	1471.085938	149.446335
-7427.097713	4218.333167	1470.020508	-85.785507
-7427.097713	4218.333167	1468.955078	89.495995
-7427.097713	4218.333167	1467.888672	177.238251
-7427.097713	4218.333167	1466.823242	318.748962
-7427.097713	4218.333167	1465.756836	162.475647
-7427.097713	4218.333167	1464.690430	187.760147
-7427.097713	4218.333167	1463.624023	235.123062
-7427.097713	4218.333167	1462.556641	287.440765
-7427.097713	4218.333167	1461.490234	328.314362
-7427.097713	4218.333167	1460.422852	103.302193
-7427.097713	4218.333167	1459.355469	296.358124
-7427.097713	4218.333167	1458.287109	118.742531
-7427.097713	4218.333167	1457.219727	50.502312
-7427.097713	4218.333167	1456.151367	358.900360
-7427.097713	4218.333167	1455.083008	173.039719
-7427.097713	4218.333167	1454.014648	46.976101
-7427.097713	4218.333167	1452.945313	97.242569
-7427.097713	4218.333167	1451.876953	251.989960
-7427.097713	4218.333167	1450.807617	293.340088
-7427.097713	4218.333167	1449.738281	115.761894
-7427.097713	4218.333167	1448.668945	253.440948
-7427.097713	4218.333167	1447.598633	256.305115
-7427.097713	4218.333167	1446.528320	492.823151
-7427.097713	4218.333167	1445.458008	193.563431
-7427.097713	4218.333167	1444.387695	179.638260
-7427.097713	4218.333167	1443.317383	443.870880
-7427.097713	4218.333167	1442.246094	210.242111
-7427.097713	4218.333167	1441.174805	220.686279
-7427.097713	4218.333167	1440.103516	167.810760
-7427.097713	4218.333167	1439.032227	222.519836
-7427.097713	4218.333167	1437.960938	122.231445
-7427.097713	4218.333167	1436.888672	160.717697
-7427.097713	4218.333167	1435.816406	208.192856
-7427.097713	4218.333167	1434.744141	195.260391
-7427.097713	4218.333167	1433.670898	176.778488
-7427.097713	4218.333167	1432.598633	100.541435
-7427.097713	4218.333167	1431.525391	48.369209
-7427.097713	4218.333167	1430.452148	170.556824
-7427.097713	4218.333167	1429.378906	125.337631
-7427.097713	4218.333167	1428.304688	99.999733
-7427.097713	4218.333167	1427.231445	4.501889
-7427.097713	4218.333167	1426.157227	-61.389114
-7427.097713	4218.333167	1425.083008	58.139034
-7427.097713	4218.333167	1424.007813	-4.600936
-7427.097713	4218.333167	1422.933594	-4.488617
-7427.097713	4218.333167	1421.858398	-2.571260
-7427.097713	4218.333167	1420.783203	98.118477
-7427.097713	4218.333167	1419.708008	58.470146
-7427.097713	4218.333167	1418.631836	116.495934
-7427.097713	4218.333167	1417.555664	181.040939
-7427.097713	4218.333167	1416.479492	-1.820735
-7427.097713	4218.333167	1415.403320	54.708633
-7427.097713	4218.333167	1414.327148	166.082031
-7427.097713	4218.333167	1413.250000	64.628319
-7427.097713	4218.333167	1412.173828	44.058571
-7427.097713	4218.333167	1411.096680	55.064846
-7427.097713	4218.333167	1410.018555	144.581726
-7427.097713	4218.333167	1408.941406	292.370758
-7427.097713	4218.333167	1407.863281	57.499256
-7427.097713	4218.333167	1406.785156	46.997337
-7427.097713	4218.333167	1405.707031	27.760324
-7427.097713	4218.333167	1404.628906	-45.636757
-7427.097713	4218.333167	1403.549805	191.133423
-7427.097713	4218.333167	1402.470703	53.164173
-7427.097713	4218.333167	1401.391602	-22.234135
-7427.097713	4218.333167	1400.312500	115.951981
-7427.097713	4218.333167	1399.233398	190.268219
-7427.097713	4218.333167	1398.153320	93.206223
-7427.097713	4218.333167	1397.073242	84.744759
-7427.097713	4218.333167	1395.993164	274.338715
-7427.097713	4218.333167	1394.913086	108.953674
-7427.097713	4218.333167	1393.832031	177.431091
-7427.097713	4218.333167	1392.750977	183.682114
-7427.097713	4218.333167	1391.669922	-26.029779
-7427.097713	4218.333167	1390.588867	-37.228268
-7427.097713	4218.333167	1389.506836	172.315964
-7427.097713	4218.333167	1388.425781	341.503998
-7427.097713	4218.333167	1387.343750	294.687317
-7427.097713	4218.333167	1386.261719	390.111694
-7427.097713	4218.333167	1385.178711	379.188324
-7427.097713	4218.333167	1384.096680	375.635223
-7427.097713	4218.333167	1383.013672	400.449738
-7427.097713	4218.333167	1381.930664	491.661682
-7427.097713	4218.333167	1380.846680	575.475281
-7427.097713	4218.333167	1379.763672	534.982300
-7427.097713	4218.333167	1378.679688	648.996765
-7427.097713	4218.333167	1377.595703	625.751465
-7427.097713	4218.333167	1376.511719	674.349609
-7427.097713	4218.333167	1375.427734	756.987183
-7427.097713	4218.333167	1374.342773	441.993744
-7427.097713	4218.333167	1373.257813	360.266846
-7427.097713	4218.333167	1372.172852	320.000519
-7427.097713	4218.333167	1371.087891	318.729614
-7427.097713	4218.333167	1370.001953	320.116852
-7427.097713	4218.333167	1368.916992	266.143585
-7427.097713	4218.333167	1367.831055	183.683456
-7427.097713	4218.333167	1366.744141	312.630798
-7427.097713	4218.333167	1365.658203	486.487183
-7427.097713	4218.333167	1364.571289	133.299347
-7427.097713	4218.333167	1363.484375	305.842316
-7427.097713	4218.333167	1362.397461	313.973206
-7427.097713	4218.333167	1361.310547	161.491455
-7427.097713	4218.333167	1360.222656	248.769180
-7427.097713	4218.333167	1359.135742	190.616974
-7427.097713	4218.333167	1358.047852	373.636749
-7427.097713	4218.333167	1356.958984	196.392746
-7427.097713	4218.333167	1355.871094	336.243164
-7427.097713	4218.333167	1354.782227	132.860504
-7427.097713	4218.333167	1353.693359	228.629684
-7427.097713	4218.333167	1352.604492	111.854088
-7427.097713	4218.333167	1351.515625	48.812675
-7427.097713	4218.333167	1350.425781	224.949142
-7427.097713	4218.333167	1349.335938	156.286957
-7427.097713	4218.333167	1348.246094	326.775970
-7427.097713	4218.333167	1347.156250	249.993912
-7427.097713	4218.333167	1346.066406	66.659210
-7427.097713	4218.333167	1344.975586	112.343689
-7427.097713	4218.333167	1343.884766	277.968048
-7427.097713	4218.333167	1342.793945	133.028000
-7427.097713	4218.333167	1341.702148	177.884552
-7427.097713	4218.333167	1340.611328	87.505089
-7427.097713	4218.333167	1339.519531	251.933273
-7427.097713	4218.333167	1338.427734	258.967560
-7427.097713	4218.333167	1337.334961	335.279602
-7427.097713	4218.333167	1336.243164	298.658752
-7427.097713	4218.333167	1335.150391	308.291534
-7427.097713	4218.333167	1334.057617	419.623718
-7427.097713	4218.333167	1332.964844	379.548431
-7427.097713	4218.333167	1331.871094	291.664307
-7427.097713	4218.333167	1330.778320	233.316956
-7427.097713	4218.333167	1329.684570	372.628815
-7427.097713	4218.333167	1328.590820	180.697769
-7427.097713	4218.333167	1327.496094	288.388184
-7427.097713	4218.333167	1326.402344	255.192825
-7427.097713	4218.333167	1325.307617	380.135803
-7427.097713	4218.333167	1324.212891	341.911499
-7427.097713	4218.333167	1323.117188	321.455750
-7427.097713	4218.333167	1322.022461	175.909439
-7427.097713	4218.333167	1320.926758	273.315491
-7427.097713	4218.333167	1319.831055	287.325195
-7427.097713	4218.333167	1318.735352	301.324921
-7427.097713	4218.333167	1317.638672	350.430237
-7427.097713	4218.333167	1316.542969	254.685089
-7427.097713	4218.333167	1315.446289	209.408096
-7427.097713	4218.333167	1314.349609	200.247452
-7427.097713	4218.333167	1313.251953	322.075745
-7427.097713	4218.333167	1312.155273	281.739380
-7427.097713	4218.333167	1311.057617	303.747650
-7427.097713	4218.333167	1309.959961	334.887299
-7427.097713	4218.333167	1308.862305	305.164734
-7427.097713	4218.333167	1307.763672	256.303253
-7427.097713	4218.333167	1306.665039	428.146210
-7427.097713	4218.333167	1305.566406	270.510529
-7427.097713	4218.333167	1304.467773	312.107758
-7427.097713	4218.333167	1303.369141	308.304626
-7427.097713	4218.333167	1302.269531	383.744476
-7427.097713	4218.333167	1301.169922	305.254913
-7427.097713	4218.333167	1300.070313	349.960449
-7427.097713	4218.333167	1298.970703	474.325562
-7427.097713	4218.333167	1297.870117	361.561035
-7427.097713	4218.333167	1296.769531	176.813705
-7427.097713	4218.333167	1295.668945	282.561646
-7427.097713	4218.333167	1294.568359	231.793655
-7427.097713	4218.333167	1293.466797	67.073242
-7427.097713	4218.333167	1292.366211	89.422638
-7427.097713	4218.333167	1291.264648	68.338326
-7427.097713	4218.333167	1290.162109	46.369743
-7427.097713	4218.333167	1289.060547	69.515594
-7427.097713	4218.333167	1287.958008	178.156265
-7427.097713	4218.333167	1286.855469	94.671738
-7427.097713	4218.333167	1285.752930	15.140697
-7427.097713	4218.333167	1284.650391	-103.601341
-7427.097713	4218.333167	1283.546875	18.728004
-7427.097713	4218.333167	1282.444336	115.928940
-7427.097713	4218.333167	1281.339844	73.849510
-7427.097713	4218.333167	1280.236328	45.940636
-7427.097713	4218.333167	1279.132813	40.066742
-7427.097713	4218.333167	1278.028320	-72.554138
-7427.097713	4218.333167	1276.923828	-53.169151
-7427.097713	4218.333167	1275.819336	114.734947
-7427.097713	4218.333167	1274.713867	53.325459
-7427.097713	4218.333167	1273.608398	59.868851
-7427.097713	4218.333167	1272.503906	162.193069
-7427.097713	4218.333167	1271.397461	76.890747
-7427.097713	4218.333167	1270.291992	22.635015
-7427.097713	4218.333167	1269.185547	196.912354
-7427.097713	4218.333167	1268.080078	92.337959
-7427.097713	4218.333167	1266.972656	-61.422096
-7427.097713	4218.333167	1265.866211	-56.382370
-7427.097713	4218.333167	1264.759766	49.454605
-7427.097713	4218.333167	1263.652344	97.952568
-7427.097713	4218.333167	1262.544922	2.534089
-7427.097713	4218.333167	1261.436523	31.425238
-7427.097713	4218.333167	1260.329102	-19.372253
-7427.097713	4218.333167	1259.220703	-79.562080
-7427.097713	4218.333167	1258.112305	48.400352
-7427.097713	4218.333167	1257.003906	42.347656
-7427.097713	4218.333167	1255.895508	2.356572
-7427.097713	4218.333167	1254.786133	33.912998
-7427.097713	4218.333167	1253.676758	138.116196
-7427.097713	4218.333167	1252.567383	103.876877
-7427.097713	4218.333167	1251.458008	-29.092449
-7427.097713	4218.333167	1250.347656	-41.796082
-7427.097713	4218.333167	1249.237305	29.776329
-7427.097713	4218.333167	1248.126953	-103.393188
-7427.097713	4218.333167	1247.016602	88.439110
-7427.097713	4218.333167	1245.905273	73.742607
-7427.097713	4218.333167	1244.793945	101.500275
-7427.097713	4218.333167	1243.682617	106.875786
-7427.097713	4218.333167	1242.571289	-29.083395
-7427.097713	4218.333167	1241.459961	-48.379604
-7427.097713	4218.333167	1240.347656	-51.771942
-7427.097713	4218.333167	1239.235352	149.914917
-7427.097713	4218.333167	1238.123047	79.539009
-7427.097713	4218.333167	1237.009766	8.392999
-7427.097713	4218.333167	1235.897461	23.380634
-7427.097713	4218.333167	1234.784180	39.825939
-7427.097713	4218.333167	1233.670898	-45.290100
-7427.097713	4218.333167	1232.556641	-146.114243
-7427.097713	4218.333167	1231.443359	-6.830654
-7427.097713	4218.333167	1230.329102	105.109337
-7427.097713	4218.333167	1229.214844	-64.016418
-7427.097713	4218.333167	1228.099609	-15.650561
-7427.097713	4218.333167	1226.985352	-42.151089
-7427.097713	4218.333167	1225.870117	-11.113848
-7427.097713	4218.333167	1224.754883	76.805420
-7427.097713	4218.333167	1223.639648	23.027266
-7427.097713	4218.333167	1222.523438	67.008476
-7427.097713	4218.333167	1221.408203	48.622486
-7427.097713	4218.333167	1220.291992	162.458054
-7427.097713	4218.333167	1219.174805	62.093929
-7427.097713	4218.333167	1218.058594	21.458250
-7427.097713	4218.333167	1216.941406	-167.036011
-7427.097713	4218.333167	1215.824219	75.751312
-7427.097713	4218.333167	1214.707031	-93.657661
-7427.097713	4218.333167	1213.589844	-12.121651
-7427.097713	4218.333167	1212.471680	44.642307
-7427.097713	4218.333167	1211.353516	161.315414
-7427.097713	4218.333167	1210.235352	-51.648548
-7427.097713	4218.333167	1209.117188	-125.277260
-7427.097713	4218.333167	1207.998047	-14.438129
-7427.097713	4218.333167	1206.878906	-69.216545
-7427.097713	4218.333167	1205.759766	-48.056175
-7427.097713	4218.333167	1204.640625	-83.943672
-7427.097713	4218.333167	1203.520508	-99.029655
-7427.097713	4218.333167	1202.401367	-10.774558
-7427.097713	4218.333167	1201.281250	-44.951973
-7427.097713	4218.333167	1200.160156	-97.726288
-7427.097713	4218.333167	1199.040039	-109.023705
-7427.097713	4218.333167	1197.918945	-87.249687
-7427.097713	4218.333167	1196.797852	-45.741505
-7427.097713	4218.333167	1195.676758	1.756411
-7427.097713	4218.333167	1194.555664	-33.130253
-7427.097713	4218.333167	1193.433594	55.194916
-7427.097713	4218.333167	1192.311523	27.984526
-7427.097713	4218.333167	1191.189453	-43.619125
-7427.097713	4218.333167	1190.066406	-37.254990
-7427.097713	4218.333167	1188.944336	-26.146002
-7427.097713	4218.333167	1187.821289	-30.246552
-7427.097713	4218.333167	1186.698242	-29.361593
-7427.097713	4218.333167	1185.574219	-73.099823
-7427.097713	4218.333167	1184.451172	-121.897980
-7427.097713	4218.333167	1183.327148	-30.656778
-7427.097713	4218.333167	1182.203125	45.380386
-7427.097713	4218.333167	1181.078125	-73.665718
-7427.097713	4218.333167	1179.954102	91.700882
-7427.097713	4218.333167	1178.829102	-138.319046
-7427.097713	4218.333167	1177.704102	-43.893627
-7427.097713	4218.333167	1176.579102	67.328438
-7427.097713	4218.333167	1175.453125	-97.219604
-7427.097713	4218.333167	1174.327148	-84.414856
-7427.097713	4218.333167	1173.201172	2.685817
-7427.097713	4218.333167	1172.075195	-32.412930
-7427.097713	4218.333167	1170.949219	-12.641993
-7427.097713	4218.333167	1169.822266	4.209166
-7427.097713	4218.333167	1168.695313	23.216654
-7427.097713	4218.333167	1167.568359	-64.913689
-7427.097713	4218.333167	1166.440430	137.105789
-7427.097713	4218.333167	1165.313477	-45.344822
-7427.097713	4218.333167	1164.185547	-20.415579
-7427.097713	4218.333167	1163.057617	-4.171906
-7427.097713	4218.333167	1161.928711	-33.570324
-7427.097713	4218.333167	1160.800781	9.684412
-7427.097713	4218.333167	1159.671875	71.378670
-7427.097713	4218.333167	1158.541992	-224.989731
-7427.097713	4218.333167	1157.413086	-165.223114
-7427.097713	4218.333167	1156.283203	-21.261751
-7427.097713	4218.333167	1155.154297	-80.589531
-7427.097713	4218.333167	1154.023438	33.069653
-7427.097713	4218.333167	1152.893555	-131.383896
-7427.097713	4218.333167	1151.763672	-107.438995
-7427.097713	4218.333167	1150.632813	-96.820824
-7427.097713	4218.333167	1149.501953	-16.336777
-7427.097713	4218.333167	1148.370117	-84.403473
-7427.097713	4218.333167	1147.239258	53.143845
-7427.097713	4218.333167	1146.107422	-88.856010
-7427.097713	4218.333167	1144.975586	-117.800224
-7427.097713	4218.333167	1143.843750	-100.682106
-7427.097713	4218.333167	1142.710938	-196.234726
-7427.097713	4218.333167	1141.578125	-109.665764
-7427.097713	4218.333167	1140.445313	-39.299568
-7427.097713	4218.333167	1139.312500	-24.998575
-7427.097713	4218.333167	1138.178711	-192.998856
-7427.097713	4218.333167	1137.045898	-91.505440
-7427.097713	4218.333167	1135.912109	-129.420013
-7427.097713	4218.333167	1134.777344	-181.286697
-7427.097713	4218.333167	1133.643555	27.234488
-7427.097713	4218.333167	1132.508789	51.726154
-7427.097713	4218.333167	1131.374023	112.109718
-7427.097713	4218.333167	1130.239258	30.153614
-7427.097713	4218.333167	1129.104492	139.940765
-7427.097713	4218.333167	1127.968750	186.850204
-7427.097713	4218.333167	1126.833008	56.175510
-7427.097713	4218.333167	1125.697266	256.209564
-7427.097713	4218.333167	1124.560547	110.932922
-7427.097713	4218.333167	1123.424805	216.869522
-7427.097713	4218.333167	1122.288086	184.231552
-7427.097713	4218.333167	1121.151367	42.195496
-7427.097713	4218.333167	1120.013672	151.561218
-7427.097713	4218.333167	1118.876953	164.588135
-7427.097713	4218.333167	1117.739258	143.860397
-7427.097713	4218.333167	1116.601563	19.194206
-7427.097713	4218.333167	1115.462891	159.482147
-7427.097713	4218.333167	1114.324219	241.443787
-7427.097713	4218.333167	1113.186523	77.749939
-7427.097713	4218.333167	1112.046875	-17.670662
-7427.097713	4218.333167	1110.908203	9.034394
-7427.097713	4218.333167	1109.769531	102.873878
-7427.097713	4218.333167	1108.629883	102.829132
-7427.097713	4218.333167	1107.490234	35.918697
-7427.097713	4218.333167	1106.349609	150.883652
-7427.097713	4218.333167	1105.209961	160.249496
-7427.097713	4218.333167	1104.069336	179.594147
-7427.097713	4218.333167	1102.928711	49.029964
-7427.097713	4218.333167	1101.787109	129.853638
-7427.097713	4218.333167	1100.646484	193.738281
-7427.097713	4218.333167	1099.504883	192.637665
-7427.097713	4218.333167	1098.363281	341.997223
-7427.097713	4218.333167	1097.221680	153.445862
-7427.097713	4218.333167	1096.079102	184.422775
-7427.097713	4218.333167	1094.936523	260.096130
-7427.097713	4218.333167	1093.793945	251.024506
-7427.097713	4218.333167	1092.651367	298.932526
-7427.097713	4218.333167	1091.507813	69.121620
-7427.097713	4218.333167	1090.364258	107.877243
-7427.097713	4218.333167	1089.220703	10.806821
-7427.097713	4218.333167	1088.077148	200.762894
-7427.097713	4218.333167	1086.933594	140.545288
-7427.097713	4218.333167	1085.789063	158.957321
-7427.097713	4218.333167	1084.644531	100.576530
-7427.097713	4218.333167	1083.499023	123.137848
-7427.097713	4218.333167	1082.354492	140.385330
-7427.097713	4218.333167	1081.208984	126.513405
-7427.097713	4218.333167	1080.063477	225.225677
-7427.097713	4218.333167	1078.917969	305.184296
-7427.097713	4218.333167	1077.771484	140.966873
-7427.097713	4218.333167	1076.625977	212.205368
-7427.097713	4218.333167	1075.479492	322.194611
-7427.097713	4218.333167	1074.332031	202.511795
-7427.097713	4218.333167	1073.185547	166.129745
-7427.097713	4218.333167	1072.038086	250.869614
-7427.097713	4218.333167	1070.890625	145.161713
-7427.097713	4218.333167	1069.743164	13.668205
-7427.097713	4218.333167	1068.594727	42.137505
-7427.097713	4218.333167	1067.447266	195.581757
-7427.097713	4218.333167	1066.298828	174.760361
-7427.097713	4218.333167	1065.149414	166.243668
-7427.097713	4218.333167	1064.000977	258.088837
-7427.097713	4218.333167	1062.851563	237.796448
-7427.097713	4218.333167	1061.702148	229.915100
-7427.097713	4218.333167	1060.552734	113.600166
-7427.097713	4218.333167	1059.402344	175.754227
-7427.097713	4218.333167	1058.252930	143.323303
-7427.097713	4218.333167	1057.102539	108.299004
-7427.097713	4218.333167	1055.951172	110.548531
-7427.097713	4218.333167	1054.800781	124.723114
-7427.097713	4218.333167	1053.649414	33.773224
-7427.097713	4218.333167	1052.498047	3.711550
-7427.097713	4218.333167	1051.346680	-28.139559
-7427.097713	4218.333167	1050.194336	75.752243
-7427.097713	4218.333167	1049.042969	51.599876
-7427.097713	4218.333167	1047.890625	56.642727
-7427.097713	4218.333167	1046.738281	-77.331047
-7427.097713	4218.333167	1045.584961	-54.682709
-7427.097713	4218.333167	1044.431641	9.950154
-7427.097713	4218.333167	1043.278320	-107.585670
-7427.097713	4218.333167	1042.125000	9.614222
-7427.097713	4218.333167	1040.971680	113.065559
-7427.097713	4218.333167	1039.817383	132.745880
-7427.097713	4218.333167	1038.663086	28.602634
-7427.097713	4218.333167	1037.508789	53.079308
-7427.097713	4218.333167	1036.353516	146.172913
-7427.097713	4218.333167	1035.198242	23.539959
-7427.097713	4218.333167	1034.042969	105.540916
-7427.097713	4218.333167	1032.887695	210.443481
-7427.097713	4218.333167	1031.732422	46.444057
-7427.097713	4218.333167	1030.576172	221.877487
-7427.097713	4218.333167	1029.419922	96.253891
-7427.097713	4218.333167	1028.263672	134.303848
-7427.097713	4218.333167	1027.106445	77.269379
-7427.097713	4218.333167	1025.949219	-74.586418
-7427.097713	4218.333167	1024.792969	264.441010
-7427.097713	4218.333167	1023.634766	111.999260
-7427.097713	4218.333167	1022.477539	21.392168
-7427.097713	4218.333167	1021.319336	83.814491
-7427.097713	4218.333167	1020.161133	43.397568
-7427.097713	4218.333167	1019.002930	38.396412
-7427.097713	4218.333167	1017.843750	135.939651
-7427.097713	4218.333167	1016.684570	-169.195801
-7427.097713	4218.333167	1015.525391	-9.434646
-7427.097713	4218.333167	1014.366211	31.066055
-7427.097713	4218.333167	1013.207031	-111.658401
-7427.097713	4218.333167	1012.046875	-6.166957
-7427.097713	4218.333167	1010.886719	-73.936058
-7427.097713	4218.333167	1009.726563	-64.621811
-7427.097713	4218.333167	1008.565430	30.882830
-7427.097713	4218.333167	1007.404297	-47.798939
-7427.097713	4218.333167	1006.243164	106.959991
-7427.097713	4218.333167	1005.082031	3.197351
-7427.097713	4218.333167	1003.920898	169.903046
-7427.097713	4218.333167	1002.758789	-29.783716
-7427.097713	4218.333167	1001.596680	88.679771
-7427.097713	4218.333167	1000.433594	148.188553
-7427.097713	4218.333167	999.271484	49.274246
-7427.097713	4218.333167	998.108398	2.498290
-7427.097713	4218.333167	996.945313	-44.448620
-7427.097713	4218.333167	995.782227	-10.654714
-7427.097713	4218.333167	994.618164	28.672953
-7427.097713	4218.333167	993.454102	39.661640
-7427.097713	4218.333167	992.290039	-91.386253
-7427.097713	4218.333167	991.125977	-111.810425
-7427.097713	4218.333167	989.960938	47.958893
-7427.097713	4218.333167	988.796875	-55.315029
-7427.097713	4218.333167	987.630859	-12.767989
-7427.097713	4218.333167	986.465820	54.515907
-7427.097713	4218.333167	985.300781	58.959435
-7427.097713	4218.333167	984.134766	78.037071
-7427.097713	4218.333167	982.968750	42.486046
-7427.097713	4218.333167	981.801758	105.343811
-7427.097713	4218.333167	980.635742	-24.231668
-7427.097713	4218.333167	979.468750	-3.161741
-7427.097713	4218.333167	978.301758	-66.316566
-7427.097713	4218.333167	977.133789	42.993126
-7427.097713	4218.333167	975.966797	-80.169830
-7427.097713	4218.333167	974.798828	37.580250
-7427.097713	4218.333167	973.630859	-87.567169
-7427.097713	4218.333167	972.461914	90.514641
-7427.097713	4218.333167	971.293945	84.265533
-7427.097713	4218.333167	970.125000	157.928558
-7427.097713	4218.333167	968.956055	-12.270188
-7427.097713	4218.333167	967.786133	-68.724510
-7427.097713	4218.333167	966.617188	-1.422708
-7427.097713	4218.333167	965.447266	-26.427963
-7427.097713	4218.333167	964.276367	47.453201
-7427.097713	4218.333167	963.106445	-59.091183
-7427.097713	4218.333167	961.935547	5.221344
-7427.097713	4218.333167	960.764648	-8.712638
-7427.097713	4218.333167	959.593750	-108.071693
-7427.097713	4218.333167	958.422852	-148.103241
-7427.097713	4218.333167	957.250977	-5.460454
-7427.097713	4218.333167	956.079102	162.973984
-7427.097713	4218.333167	954.907227	63.215336
-7427.097713	4218.333167	953.734375	-46.150818
-7427.097713	4218.333167	952.562500	56.735069
-7427.097713	4218.333167	951.389648	-103.603485
-7427.097713	4218.333167	950.215820	64.628082
-7427.097713	4218.333167	949.042969	-141.065140
-7427.097713	4218.333167	947.869141	30.094227
-7427.097713	4218.333167	946.695313	-2.576738
-7427.097713	4218.333167	945.521484	-7.725367
-7427.097713	4218.333167	944.346680	-153.577682
-7427.097713	4218.333167	943.172852	123.877342
-7427.097713	4218.333167	941.998047	-43.396469
-7427.097713	4218.333167	940.822266	110.352463
-7427.097713	4218.333167	939.647461	44.344173
-7427.097713	4218.333167	938.471680	70.298317
-7427.097713	4218.333167	937.295898	35.723896
-7427.097713	4218.333167	936.119141	75.888985
-7427.097713	4218.333167	934.943359	-26.206566
-7427.097713	4218.333167	933.766602	-92.149300
-7427.097713	4218.333167	932.589844	93.185539
-7427.097713	4218.333167	931.413086	-71.724899
-7427.097713	4218.333167	930.235352	299.328339
-7427.097713	4218.333167	929.057617	117.506149
-7427.097713	4218.333167	927.879883	70.876999
-7427.097713	4218.333167	926.702148	38.783276
-7427.097713	4218.333167	925.523438	16.345530
-7427.097713	4218.333167	924.344727	165.202698
-7427.097713	4218.333167	923.166016	34.203983
-7427.097713	4218.333167	921.987305	35.886127
-7427.097713	4218.333167	920.807617	37.574718
-7427.097713	4218.333167	919.627930	40.888195
-7427.097713	4218.333167	919.497070	-85.735962
-7427.097713	4218.333167	918.331055	171.437012
-7427.097713	4218.333167	917.165039	98.344543
-7427.097713	4218.333167	915.999023	-143.381409
-7427.097713	4218.333167	914.833008	-16.448313
-7427.097713	4218.333167	913.666016	57.445976
-7427.097713	4218.333167	912.499023	30.172821
-7427.097713	4218.333167	911.332031	-38.020134
-7427.097713	4218.333167	910.165039	148.948730
-7427.097713	4218.333167	908.997070	107.225258
-7427.097713	4218.333167	907.830078	19.798243
-7427.097713	4218.333167	906.661133	-31.508701
-7427.097713	4218.333167	905.493164	85.549316
-7427.097713	4218.333167	904.325195	12.598598
-7427.097713	4218.333167	903.156250	139.211227
-7427.097713	4218.333167	901.987305	30.222477
-7427.097713	4218.333167	900.818359	41.426334
-7427.097713	4218.333167	899.648438	91.066269
-7427.097713	4218.333167	898.478516	39.795895
-7427.097713	4218.333167	897.308594	-42.677700
-7427.097713	4218.333167	896.138672	33.350613
-7427.097713	4218.333167	894.968750	258.182159
-7427.097713	4218.333167	893.797852	122.905067
-7427.097713	4218.333167	892.626953	33.273098
-7427.097713	4218.333167	891.456055	171.591446
-7427.097713	4218.333167	890.284180	19.617701
-7427.097713	4218.333167	889.113281	117.107811
-7427.097713	4218.333167	887.941406	104.265358
-7427.097713	4218.333167	886.768555	26.704617
-7427.097713	4218.333167	885.596680	-72.400459
-7427.097713	4218.333167	884.423828	113.681503
-7427.097713	4218.333167	883.250977	100.840958
-7427.097713	4218.333167	882.078125	-94.032921
-7427.097713	4218.333167	880.905273	46.430996
-7427.097713	4218.333167	879.731445	55.154774
-7427.097713	4218.333167	878.557617	121.321342
-7427.097713	4218.333167	877.383789	17.537661
-7427.097713	4218.333167	876.209961	-12.031234
-7427.097713	4218.333167	875.035156	89.987404
-7427.097713	4218.333167	873.860352	91.506477
-7427.097713	4218.333167	872.685547	2.152465
-7427.097713	4218.333167	871.510742	101.706123
-7427.097713	4218.333167	870.334961	91.264297
-7427.097713	4218.333167	869.159180	-107.972511
-7427.097713	4218.333167	867.983398	8.262301
-7427.097713	4218.333167	866.807617	-4.551298
-7427.097713	4218.333167	865.630859	80.562904
-7427.097713	4218.333167	864.454102	65.348869
-7427.097713	4218.333167	863.277344	50.137650
-7427.097713	4218.333167	862.100586	-89.187973
-7427.097713	4218.333167	860.922852	-4.135203
-7427.097713	4218.333167	859.745117	16.459852
-7427.097713	4218.333167	858.567383	158.700195
-7427.097713	4218.333167	857.389648	-130.793594
-7427.097713	4218.333167	856.210938	-60.118122
-7427.097713	4218.333167	855.032227	-1.394631
-7427.097713	4218.333167	853.853516	7.248910
-7427.097713	4218.333167	852.674805	11.120076
-7427.097713	4218.333167	851.495117	45.961124
-7427.097713	4218.333167	850.315430	-102.629478
-7427.097713	4218.333167	849.135742	56.052330
-7427.097713	4218.333167	847.956055	-49.627296
-7427.097713	4218.333167	846.775391	68.505035
-7427.097713	4218.333167	845.595703	84.241539
-7427.097713	4218.333167	844.415039	38.101891
-7427.097713	4218.333167	843.233398	-41.326576
-7427.097713	4218.333167	842.052734	64.800133
-7427.097713	4218.333167	840.871094	97.161324
-7427.097713	4218.333167	839.689453	117.617195
-7427.097713	4218.333167	838.506836	61.996361
-7427.097713	4218.333167	837.325195	-10.244855
-7427.097713	4218.333167	836.142578	136.146057
-7427.097713	4218.333167	834.959961	101.924324
-7427.097713	4218.333167	833.777344	186.469742
-7427.097713	4218.333167	832.593750	-25.853949
-7427.097713	4218.333167	831.410156	-38.664070
-7427.097713	4218.333167	830.226563	102.815651
-7427.097713	4218.333167	829.042969	6.913744
-7427.097713	4218.333167	827.858398	17.820585
-7427.097713	4218.333167	826.673828	66.673729
-7427.097713	4218.333167	825.489258	-216.539612
-7427.097713	4218.333167	824.304688	-23.023142
-7427.097713	4218.333167	823.120117	16.310432
-7427.097713	4218.333167	821.934570	-143.476471
-7427.097713	4218.333167	820.749023	-111.251648
-7427.097713	4218.333167	819.562500	-171.444901
-7427.097713	4218.333167	818.376953	5.258112
-7427.097713	4218.333167	817.190430	-7.579238
-7427.097713	4218.333167	816.003906	36.410606
-7427.097713	4218.333167	814.817383	-52.193851
-7427.097713	4218.333167	813.629883	-24.790213
-7427.097713	4218.333167	812.442383	210.834305
-7427.097713	4218.333167	811.254883	58.355377
-7427.097713	4218.333167	810.067383	40.758221
-7427.097713	4218.333167	808.878906	16.070505
-7427.097713	4218.333167	807.690430	-129.198090
-7427.097713	4218.333167	806.501953	-2.564305
-7427.097713	4218.333167	805.313477	5.839908
-7427.097713	4218.333167	804.124023	85.123230
-7427.097713	4218.333167	802.934570	86.406693
-7427.097713	4218.333167	801.745117	-94.187782
-7427.097713	4218.333167	800.555664	96.034012
-7427.097713	4218.333167	799.365234	-60.890064
-7427.097713	4218.333167	798.175781	18.288078
-7427.097713	4218.333167	796.985352	0.669179
-7427.097713	4218.333167	795.793945	91.588524
-7427.097713	4218.333167	794.603516	45.637020
-7427.097713	4218.333167	793.412109	-141.812668
-7427.097713	4218.333167	792.220703	-65.093102
-7427.097713	4218.333167	791.028320	-77.998497
-7427.097713	4218.333167	789.836914	-67.338783
-7427.097713	4218.333167	788.644531	-14.272123
-7427.097713	4218.333167	787.452148	-114.381531
-7427.097713	4218.333167	786.258789	9.325346
-7427.097713	4218.333167	785.066406	-13.047783
-7427.097713	4218.333167	783.873047	-117.830048
-7427.097713	4218.333167	782.679688	-168.433533
-7427.097713	4218.333167	781.485352	148.144333
-7427.097713	4218.333167	780.291992	-43.702160
-7427.097713	4218.333167	779.097656	-251.945755
-7427.097713	4218.333167	777.903320	0.913100
-7427.097713	4218.333167	776.708008	-266.063965
-7427.097713	4218.333167	775.512695	59.561077
-7427.097713	4218.333167	774.318359	-150.924042
-7427.097713	4218.333167	773.122070	-58.149685
-7427.097713	4218.333167	771.926758	-61.766090
-7427.097713	4218.333167	770.730469	80.263138
-7427.097713	4218.333167	769.534180	137.666122
-7427.097713	4218.333167	768.337891	14.217142
-7427.097713	4218.333167	767.141602	-83.366211
-7427.097713	4218.333167	765.944336	161.785202
-7427.097713	4218.333167	764.747070	-114.167809
-7427.097713	4218.333167	763.549805	65.166664
-7427.097713	4218.333167	762.351563	-128.570297
-7427.097713	4218.333167	761.154297	57.703907
-7427.097713	4218.333167	759.956055	-114.872963
-7427.097713	4218.333167	758.757813	-71.709404
-7427.097713	4218.333167	757.558594	-239.523254
-7427.097713	4218.333167	756.359375	-140.135101
-7427.097713	4218.333167	755.160156	17.770823
-7427.097713	4218.333167	753.960938	-128.916000
-7427.097713	4218.333167	752.761719	103.835510
-7427.097713	4218.333167	751.561523	104.676109
-7427.097713	4218.333167	750.361328	4.841916
-7427.097713	4218.333167	749.160156	8.016364
-7427.097713	4218.333167	747.959961	53.293037
-7427.097713	4218.333167	746.758789	-137.750107
-7427.097713	4218.333167	745.557617	-176.693314
-7427.097713	4218.333167	744.356445	55.630741
-7427.097713	4218.333167	743.154297	65.733086
-7427.097713	4218.333167	741.952148	-13.009938
-7427.097713	4218.333167	740.750000	109.249176
-7427.097713	4218.333167	739.547852	-119.041000
-7427.097713	4218.333167	738.344727	-62.249870
-7427.097713	4218.333167	737.142578	78.580154
-7427.097713	4218.333167	735.939453	158.624954
-7427.097713	4218.333167	734.735352	259.632874
-7427.097713	4218.333167	733.532227	82.820885
-7427.097713	4218.333167	732.328125	116.094246
-7427.097713	4218.333167	731.124023	56.011097
-7427.097713	4218.333167	729.918945	98.574501
-7427.097713	4218.333167	728.714844	73.468811
-7427.097713	4218.333167	727.509766	129.966400
-7427.097713	4218.333167	726.303711	69.864937
-7427.097713	4218.333167	725.098633	-20.529051
-7427.097713	4218.333167	723.892578	-113.231850
-7427.097713	4218.333167	722.686523	241.392899
-7427.097713	4218.333167	721.480469	-14.408351
-7427.097713	4218.333167	720.274414	142.067886
-7427.097713	4218.333167	719.067383	9.757682
-7427.097713	4218.333167	717.860352	-113.204994
-7427.097713	4218.333167	716.653320	5.903376
-7427.097713	4218.333167	715.445313	22.565689
-7427.097713	4218.333167	714.238281	18.264042
-7427.097713	4218.333167	713.030273	-193.051788
-7427.097713	4218.333167	711.821289	-129.907333
-7427.097713	4218.333167	710.613281	-1.713482
-7427.097713	4218.333167	709.404297	140.354477
-7427.097713	4218.333167	708.195313	-124.334480
-7427.097713	4218.333167	706.986328	-89.215004
-7427.097713	4218.333167	705.776367	-16.962025
-7427.097713	4218.333167	704.566406	-16.753862
-7427.097713	4218.333167	703.356445	53.092018
-7427.097713	4218.333167	702.146484	-21.040188
-7427.097713	4218.333167	700.935547	116.046120
-7427.097713	4218.333167	699.724609	148.634140
-7427.097713	4218.333167	698.513672	88.389320
-7427.097713	4218.333167	697.302734	14.232485
-7427.097713	4218.333167	696.090820	-94.697418
-7427.097713	4218.333167	694.878906	-15.802192
-7427.097713	4218.333167	693.666992	81.583153
-7427.097713	4218.333167	692.455078	120.968819
-7427.097713	4218.333167	691.242188	46.783230
-7427.097713	4218.333167	690.029297	28.205254
-7427.097713	4218.333167	688.816406	229.641586
-7427.097713	4218.333167	687.602539	-62.246967
-7427.097713	4218.333167	686.389648	-36.866138
-7427.097713	4218.333167	685.175781	173.654068
-7427.097713	4218.333167	683.960938	106.370224
-7427.097713	4218.333167	682.747070	129.324448
-7427.097713	4218.333167	681.532227	163.814880
-7427.097713	4218.333167	680.317383	165.892120
-7427.097713	4218.333167	679.102539	135.577164
-7427.097713	4218.333167	677.886719	54.397427
-7427.097713	4218.333167	676.670898	151.193619
-7427.097713	4218.333167	675.455078	192.470627
-7427.097713	4218.333167	674.239258	25.788050
-7427.097713	4218.333167	673.022461	173.281143
-7427.097713	4218.333167	671.805664	108.238960
-7427.097713	4218.333167	670.588867	160.950089
-7427.097713	4218.333167	669.372070	-7.977029
-7427.097713	4218.333167	668.154297	-96.080513
-7427.097713	4218.333167	666.936523	115.782776
-7427.097713	4218.333167	665.718750	191.432709
-7427.097713	4218.333167	664.500977	181.695496
-7427.097713	4218.333167	663.282227	144.271774
-7427.097713	4218.333167	662.063477	-176.717239
-7427.097713	4218.333167	660.844727	-4.347629
-7427.097713	4218.333167	659.625000	-39.465694
-7427.097713	4218.333167	658.405273	-58.462822
-7427.097713	4218.333167	657.185547	92.980415
-7427.097713	4218.333167	655.965820	60.104820
-7427.097713	4218.333167	654.745117	34.129974
-7427.097713	4218.333167	653.525391	109.431442
-7427.097713	4218.333167	652.303711	90.322037
-7427.097713	4218.333167	651.083008	87.306061
-7427.097713	4218.333167	649.861328	52.064693
-7427.097713	4218.333167	648.640625	269.819855
-7427.097713	4218.333167	647.417969	140.234772
-7427.097713	4218.333167	646.196289	235.990234
-7427.097713	4218.333167	644.973633	-65.964622
-7427.097713	4218.333167	643.750977	75.716408
-7427.097713	4218.333167	642.528320	95.546165
-7427.097713	4218.333167	641.305664	-13.289167
-7427.097713	4218.333167	640.082031	59.335152
-7427.097713	4218.333167	638.858398	166.351334
-7427.097713	4218.333167	637.634766	142.451920
-7427.097713	4218.333167	636.410156	159.857330
-7427.097713	4218.333167	635.185547	154.289886
-7427.097713	4218.333167	633.960938	1.878670
-7427.097713	4218.333167	632.736328	-17.451311
-7427.097713	4218.333167	631.510742	82.455864
-7427.097713	4218.333167	630.285156	170.839188
-7427.097713	4218.333167	629.059570	-6.732267
-7427.097713	4218.333167	627.833984	70.138687
-7427.097713	4218.333167	626.607422	73.639671
-7427.097713	4218.333167	625.380859	79.413101
-7427.097713	4218.333167	624.154297	-33.928013
-7427.097713	4218.333167	622.927734	19.918344
-7427.097713	4218.333167	621.700195	2.757448
-7427.097713	4218.333167	620.472656	42.807941
-7427.097713	4218.333167	619.245117	140.034927
-7427.097713	4218.333167	618.016602	15.282242
-7427.097713	4218.333167	616.788086	46.108913
-7427.097713	4218.333167	615.559570	-0.846591
-7427.097713	4218.333167	614.331055	109.965324
-7427.097713	4218.333167	613.101563	-58.167183
-7427.097713	4218.333167	611.872070	123.429718
-7427.097713	4218.333167	610.642578	-35.521976
-7427.097713	4218.333167	609.413086	111.698738
-7427.097713	4218.333167	608.182617	151.496689
-7427.097713	4218.333167	606.952148	-0.548945
-7427.097713	4218.333167	605.721680	-15.562342
-7427.097713	4218.333167	604.491211	31.046669
-7427.097713	4218.333167	603.259766	-139.169647
-7427.097713	4218.333167	602.028320	133.296677
-7427.097713	4218.333167	600.796875	168.403992
-7427.097713	4218.333167	599.564453	178.399384
-7427.097713	4218.333167	598.332031	170.138977
-7427.097713	4218.333167	597.099609	-2.260137
-7427.097713	4218.333167	595.867188	-81.152107
-7427.097713	4218.333167	594.633789	-100.774719
-7427.097713	4218.333167	593.400391	77.801468
-7427.097713	4218.333167	592.166992	233.515793
-7427.097713	4218.333167	590.933594	270.741699
-7427.097713	4218.333167	589.699219	41.569500
-7427.097713	4218.333167	588.464844	33.280247
-7427.097713	4218.333167	587.230469	106.913887
-7427.097713	4218.333167	585.995117	48.544628
-7427.097713	4218.333167	584.760742	-64.401024
-7427.097713	4218.333167	583.525391	66.043816
-7427.097713	4218.333167	582.289063	9.976209
-7427.097713	4218.333167	581.053711	-32.433151
-7427.097713	4218.333167	579.817383	22.902220
-7427.097713	4218.333167	578.581055	105.477798
-7427.097713	4218.333167	577.343750	160.752060
-7427.097713	4218.333167	576.107422	-61.108658
-7427.097713	4218.333167	574.870117	57.755070
-7427.097713	4218.333167	573.631836	115.265053
-7427.097713	4218.333167	572.394531	2.503652
-7427.097713	4218.333167	571.156250	25.954805
-7427.097713	4218.333167	569.917969	210.489990
-7427.097713	4218.333167	568.679688	256.568634
-7427.097713	4218.333167	567.440430	93.972969
-7427.097713	4218.333167	566.202148	239.826370
-7427.097713	4218.333167	564.961914	158.916565
-7427.097713	4218.333167	563.722656	146.037277
-7427.097713	4218.333167	562.482422	-20.925676
-7427.097713	4218.333167	561.243164	104.441620
-7427.097713	4218.333167	560.001953	0.984494
-7427.097713	4218.333167	558.761719	17.597277
-7427.097713	4218.333167	557.520508	-22.396229
-7427.097713	4218.333167	556.279297	98.347626
-7427.097713	4218.333167	555.038086	80.992371
-7427.097713	4218.333167	553.795898	303.490662
-7427.097713	4218.333167	552.554688	247.650925
-7427.097713	4218.333167	551.311523	78.756516
-7427.097713	4218.333167	550.069336	212.940964
-7427.097713	4218.333167	548.826172	238.559845
-7427.097713	4218.333167	547.583984	155.682755
-7427.097713	4218.333167	546.339844	246.848984
-7427.097713	4218.333167	545.096680	170.797928
-7427.097713	4218.333167	543.852539	85.751892
-7427.097713	4218.333167	542.608398	260.455353
-7427.097713	4218.333167	541.364258	292.850098
-7427.097713	4218.333167	540.119141	88.219917
-7427.097713	4218.333167	538.875000	159.022934
-7427.097713	4218.333167	537.628906	94.423561
-7427.097713	4218.333167	536.383789	153.935913
-7427.097713	4218.333167	535.137695	211.177902
-7427.097713	4218.333167	533.892578	175.954712
-7427.097713	4218.333167	532.645508	73.125702
-7427.097713	4218.333167	531.399414	37.970943
-7427.097713	4218.333167	530.152344	-42.225601
-7427.097713	4218.333167	528.905273	116.440521
-7427.097713	4218.333167	527.658203	-6.510325
-7427.097713	4218.333167	526.410156	-14.541918
-7427.097713	4218.333167	525.163086	-49.575310
-7427.097713	4218.333167	523.914063	127.018997
-7427.097713	4218.333167	522.666016	96.499825
-7427.097713	4218.333167	521.416992	54.758625
-7427.097713	4218.333167	520.167969	-61.187000
-7427.097713	4218.333167	518.918945	-46.618526
-7427.097713	4218.333167	517.669922	-74.765182
-7427.097713	4218.333167	516.419922	-42.184006
-7427.097713	4218.333167	515.169922	-193.909256
-7427.097713	4218.333167	513.919922	11.749215
-7427.097713	4218.333167	512.668945	60.067387
-7427.097713	4218.333167	511.417969	-24.146313
-7427.097713	4218.333167	510.166992	-29.705681
-7427.097713	4218.333167	508.916016	-172.206268
-7427.097713	4218.333167	507.664063	-168.718292
-7427.097713	4218.333167	506.412109	-115.839714
-7427.097713	4218.333167	505.160156	15.566299
-7427.097713	4218.333167	503.907227	-1.125187
-7427.097713	4218.333167	502.655273	80.892090
-7427.097713	4218.333167	501.402344	79.925278
-7427.097713	4218.333167	500.148438	16.203938
-7427.097713	4218.333167	498.895508	10.804205
-7427.097713	4218.333167	497.641602	3.183155
-7427.097713	4218.333167	496.387695	9.026263
-7427.097713	4218.333167	495.132813	-112.791946
-7427.097713	4218.333167	493.878906	-19.552469
-7427.097713	4218.333167	492.624023	4.255976
-7427.097713	4218.333167	491.368164	-88.329109
-7427.097713	4218.333167	490.113281	2.659151
-7427.097713	4218.333167	488.857422	-45.101440
-7427.097713	4218.333167	487.601563	-195.729401
-7427.097713	4218.333167	486.344727	-62.230171
-7427.097713	4218.333167	485.088867	-94.244034
-7427.097713	4218.333167	483.832031	-144.112244
-7427.097713	4218.333167	482.575195	29.569466
-7427.097713	4218.333167	481.317383	-76.138519
-7427.097713	4218.333167	480.059570	-121.463860
-7427.097713	4218.333167	478.801758	-204.727814
-7427.097713	4218.333167	477.543945	-104.819511
-7427.097713	4218.333167	476.285156	24.085485
-7427.097713	4218.333167	475.027344	16.780046
-7427.097713	4218.333167	473.767578	114.384529
-7427.097713	4218.333167	472.508789	-109.345688
-7427.097713	4218.333167	471.249023	-147.812073
-7427.097713	4218.333167	469.989258	-10.056636
-7427.097713	4218.333167	468.729492	20.616648
-7427.097713	4218.333167	467.469727	82.496529
-7427.097713	4218.333167	466.208984	-76.299332
-7427.097713	4218.333167	464.948242	72.497383
-7427.097713	4218.333167	463.686523	103.158066
-7427.097713	4218.333167	462.425781	-31.019638
-7427.097713	4218.333167	461.164063	-111.687431
-7427.097713	4218.333167	459.901367	94.896294
-7427.097713	4218.333167	458.639648	65.438698
-7427.097713	4218.333167	457.376953	62.701012
-7427.097713	4218.333167	456.114258	104.464371
-7427.097713	4218.333167	454.851563	-122.960991
-7427.097713	4218.333167	453.587891	23.351181
-7427.097713	4218.333167	452.324219	-74.997841
-7427.097713	4218.333167	451.060547	-48.816647
-7427.097713	4218.333167	449.796875	-55.993954
-7427.097713	4218.333167	448.532227	43.486073
-7427.097713	4218.333167	447.267578	-81.474251
-7427.097713	4218.333167	446.002930	11.281583
-7427.097713	4218.333167	444.737305	-20.374859
-7427.097713	4218.333167	443.471680	21.233479
-7427.097713	4218.333167	442.206055	69.465042
-7427.097713	4218.333167	440.940430	-37.691898
-7427.097713	4218.333167	439.673828	59.302841
-7427.097713	4218.333167	438.407227	-109.962784
-7427.097713	4218.333167	437.140625	-4.173573
-7427.097713	4218.333167	435.873047	50.543869
-7427.097713	4218.333167	434.605469	36.483871
-7427.097713	4218.333167	433.337891	46.776348
-7427.097713	4218.333167	432.070313	-0.584127
-7427.097713	4218.333167	430.801758	-98.916954
-7427.097713	4218.333167	429.533203	-13.408998
-7427.097713	4218.333167	428.264648	-45.348145
-7427.097713	4218.333167	426.996094	28.950771
-7427.097713	4218.333167	425.726563	50.043835
-7427.097713	4218.333167	424.457031	2.471511
-7427.097713	4218.333167	423.186523	-76.110771
-7427.097713	4218.333167	421.916992	55.425945
-7427.097713	4218.333167	420.646484	43.091171
-7427.097713	4218.333167	419.375977	145.672729
-7427.097713	4218.333167	418.104492	-43.660881
-7427.097713	4218.333167	416.833008	-0.921249
-7427.097713	4218.333167	415.561523	141.157471
-7427.097713	4218.333167	414.290039	86.477280
-7427.097713	4218.333167	413.017578	186.344696
-7427.097713	4218.333167	411.746094	12.261319
-7427.097713	4218.333167	410.472656	50.102806
-7427.097713	4218.333167	409.200195	127.561363
-7427.097713	4218.333167	407.926758	145.301956
-7427.097713	4218.333167	406.653320	61.438591
-7427.097713	4218.333167	405.379883	222.346603
-7427.097713	4218.333167	404.105469	91.963974
-7427.097713	4218.333167	402.831055	164.364563
-7427.097713	4218.333167	401.556641	210.155731
-7427.097713	4218.333167	400.282227	213.922302
-7427.097713	4218.333167	399.006836	87.547676
-7427.097713	4218.333167	397.731445	49.205143
-7427.097713	4218.333167	396.456055	94.425896
-7427.097713	4218.333167	395.179688	24.969543
-7427.097713	4218.333167	393.903320	122.700226
-7427.097713	4218.333167	392.626953	140.986115
-7427.097713	4218.333167	391.350586	-113.774963
-7427.097713	4218.333167	390.073242	75.811752
-7427.097713	4218.333167	388.795898	-91.202187
-7427.097713	4218.333167	387.518555	5.561064
-7427.097713	4218.333167	386.240234	-7.848853
-7427.097713	4218.333167	384.961914	-61.023018
-7427.097713	4218.333167	383.683594	54.836853
-7427.097713	4218.333167	382.405273	12.229576
-7427.097713	4218.333167	381.125977	160.528702
-7427.097713	4218.333167	379.846680	-27.496540
-7427.097713	4218.333167	378.567383	19.267914
-7427.097713	4218.333167	377.287109	43.806847
-7427.097713	4218.333167	376.006836	-144.818970
-7427.097713	4218.333167	374.726563	8.690486
-7427.097713	4218.333167	373.446289	89.461769
-7427.097713	4218.333167	372.165039	126.044548
-7427.097713	4218.333167	370.883789	-70.128296
-7427.097713	4218.333167	369.602539	-20.963005
-7427.097713	4218.333167	368.320313	111.161598
-7427.097713	4218.333167	367.039063	82.937248
-7427.097713	4218.333167	365.755859	41.240379
-7427.097713	4218.333167	364.473633	124.089203
-7427.097713	4218.333167	363.190430	-56.257717
-7427.097713	4218.333167	361.907227	113.446701
-7427.097713	4218.333167	360.624023	-52.222260
-7427.097713	4218.333167	359.340820	88.207436
-7427.097713	4218.333167	358.056641	145.029953
-7427.097713	4218.333167	356.772461	2.348559
-7427.097713	4218.333167	355.487305	154.578918
-7427.097713	4218.333167	354.202148	109.513878
-7427.097713	4218.333167	352.916992	39.983757
-7427.097713	4218.333167	351.631836	-32.150612
-7427.097713	4218.333167	350.346680	-17.302544
-7427.097713	4218.333167	349.060547	51.676109
-7427.097713	4218.333167	347.774414	111.401421
-7427.097713	4218.333167	346.487305	37.376263
-7427.097713	4218.333167	345.200195	39.288685
-7427.097713	4218.333167	343.913086	60.319355
-7427.097713	4218.333167	342.625977	163.733154
-7427.097713	4218.333167	341.338867	59.262508
-7427.097713	4218.333167	340.050781	-15.202924
-7427.097713	4218.333167	338.762695	71.175011
-7427.097713	4218.333167	337.473633	32.613155
-7427.097713	4218.333167	336.184570	-37.066174
-7427.097713	4218.333167	334.895508	-79.010353
-7427.097713	4218.333167	333.606445	-6.089687
-7427.097713	4218.333167	332.317383	-23.185509
-7427.097713	4218.333167	331.027344	-226.108246
-7427.097713	4218.333167	329.736328	-137.846832
-7427.097713	4218.333167	328.446289	12.819299
-7427.097713	4218.333167	327.155273	-72.412155
-7427.097713	4218.333167	325.864258	30.979422
-7427.097713	4218.333167	324.573242	-7.863711
-7427.097713	4218.333167	323.281250	-93.172699
-7427.097713	4218.333167	321.989258	-9.611769
-7427.097713	4218.333167	320.697266	46.998943
-7427.097713	4218.333167	319.405273	20.138298
-7427.097713	4218.333167	318.112305	127.157768
-7427.097713	4218.333167	316.819336	-36.191734
-7427.097713	4218.333167	315.526367	-78.713608
-7427.097713	4218.333167	314.232422	3.811635
-7427.097713	4218.333167	312.938477	5.011796
-7427.097713	4218.333167	311.644531	-98.961548
-7427.097713	4218.333167	310.349609	-216.925354
-7427.097713	4218.333167	309.054688	187.138809
-7427.097713	4218.333167	307.759766	160.415115
-7427.097713	4218.333167	306.464844	32.869591
-7427.097713	4218.333167	305.168945	181.858887
-7427.097713	4218.333167	303.873047	82.508377
-7427.097713	4218.333167	302.577148	155.489975
-7427.097713	4218.333167	301.281250	190.445892
-7427.097713	4218.333167	299.984375	224.178986
