#X		#Y		#Wave		#Intensity
-6617.441436	4638.840167	1999.946289	169.063995
-6617.441436	4638.840167	1998.981445	-44.776161
-6617.441436	4638.840167	1998.017578	50.436001
-6617.441436	4638.840167	1997.052734	-62.587025
-6617.441436	4638.840167	1996.088867	-111.189728
-6617.441436	4638.840167	1995.124023	55.704929
-6617.441436	4638.840167	1994.159180	46.652664
-6617.441436	4638.840167	1993.193359	79.665146
-6617.441436	4638.840167	1992.228516	-73.057922
-6617.441436	4638.840167	1991.262695	-134.169830
-6617.441436	4638.840167	1990.296875	29.922325
-6617.441436	4638.840167	1989.331055	47.928276
-6617.441436	4638.840167	1988.365234	75.790161
-6617.441436	4638.840167	1987.398438	108.558426
-6617.441436	4638.840167	1986.432617	-24.413572
-6617.441436	4638.840167	1985.465820	47.860516
-6617.441436	4638.840167	1984.499023	48.384861
-6617.441436	4638.840167	1983.532227	-25.270540
-6617.441436	4638.840167	1982.565430	36.989689
-6617.441436	4638.840167	1981.597656	118.965736
-6617.441436	4638.840167	1980.629883	-4.152122
-6617.441436	4638.840167	1979.662109	-95.143066
-6617.441436	4638.840167	1978.694336	26.241070
-6617.441436	4638.840167	1977.726563	26.576063
-6617.441436	4638.840167	1976.758789	-24.952456
-6617.441436	4638.840167	1975.790039	-22.189056
-6617.441436	4638.840167	1974.821289	-49.061543
-6617.441436	4638.840167	1973.852539	185.564407
-6617.441436	4638.840167	1972.883789	96.950081
-6617.441436	4638.840167	1971.915039	-3.985574
-6617.441436	4638.840167	1970.945313	20.847277
-6617.441436	4638.840167	1969.975586	-8.587016
-6617.441436	4638.840167	1969.005859	82.744255
-6617.441436	4638.840167	1968.036133	26.159428
-6617.441436	4638.840167	1967.066406	85.377716
-6617.441436	4638.840167	1966.096680	48.480129
-6617.441436	4638.840167	1965.125977	-8.125831
-6617.441436	4638.840167	1964.155273	-17.942543
-6617.441436	4638.840167	1963.184570	-17.926620
-6617.441436	4638.840167	1962.213867	112.536598
-6617.441436	4638.840167	1961.242188	38.658695
-6617.441436	4638.840167	1960.271484	45.992271
-6617.441436	4638.840167	1959.299805	-8.199117
-6617.441436	4638.840167	1958.328125	-23.031076
-6617.441436	4638.840167	1957.356445	-52.629719
-6617.441436	4638.840167	1956.384766	-52.727608
-6617.441436	4638.840167	1955.412109	30.745081
-6617.441436	4638.840167	1954.439453	67.470131
-6617.441436	4638.840167	1953.467773	13.238275
-6617.441436	4638.840167	1952.495117	59.750751
-6617.441436	4638.840167	1951.521484	-55.902332
-6617.441436	4638.840167	1950.548828	-38.897160
-6617.441436	4638.840167	1949.575195	152.440063
-6617.441436	4638.840167	1948.601563	-14.767916
-6617.441436	4638.840167	1947.627930	53.728672
-6617.441436	4638.840167	1946.654297	43.648834
-6617.441436	4638.840167	1945.680664	-108.762794
-6617.441436	4638.840167	1944.706055	-40.326042
-6617.441436	4638.840167	1943.732422	165.435623
-6617.441436	4638.840167	1942.757813	44.930386
-6617.441436	4638.840167	1941.783203	-80.445801
-6617.441436	4638.840167	1940.807617	78.592621
-6617.441436	4638.840167	1939.833008	-36.963074
-6617.441436	4638.840167	1938.857422	48.465546
-6617.441436	4638.840167	1937.881836	-40.112732
-6617.441436	4638.840167	1936.906250	-172.764130
-6617.441436	4638.840167	1935.930664	64.462196
-6617.441436	4638.840167	1934.955078	68.952164
-6617.441436	4638.840167	1933.978516	-22.056656
-6617.441436	4638.840167	1933.001953	46.071735
-6617.441436	4638.840167	1932.025391	160.665131
-6617.441436	4638.840167	1931.048828	40.294445
-6617.441436	4638.840167	1930.072266	-11.538705
-6617.441436	4638.840167	1929.094727	-24.225258
-6617.441436	4638.840167	1928.118164	-29.580896
-6617.441436	4638.840167	1927.140625	40.855778
-6617.441436	4638.840167	1926.163086	113.701027
-6617.441436	4638.840167	1925.184570	-21.252064
-6617.441436	4638.840167	1924.207031	61.332729
-6617.441436	4638.840167	1923.228516	21.710653
-6617.441436	4638.840167	1922.250000	114.009209
-6617.441436	4638.840167	1921.271484	-25.766884
-6617.441436	4638.840167	1920.292969	68.929070
-6617.441436	4638.840167	1919.314453	141.606659
-6617.441436	4638.840167	1918.334961	67.783974
-6617.441436	4638.840167	1917.355469	111.128807
-6617.441436	4638.840167	1916.375977	25.119728
-6617.441436	4638.840167	1915.396484	22.083443
-6617.441436	4638.840167	1914.416992	75.141571
-6617.441436	4638.840167	1913.436523	-3.524055
-6617.441436	4638.840167	1912.457031	5.610690
-6617.441436	4638.840167	1911.476563	12.295152
-6617.441436	4638.840167	1910.496094	60.404198
-6617.441436	4638.840167	1909.515625	23.191751
-6617.441436	4638.840167	1908.534180	46.897190
-6617.441436	4638.840167	1907.552734	34.043835
-6617.441436	4638.840167	1906.572266	-47.010494
-6617.441436	4638.840167	1905.590820	32.675797
-6617.441436	4638.840167	1904.608398	2.761858
-6617.441436	4638.840167	1903.626953	155.417450
-6617.441436	4638.840167	1902.644531	176.583115
-6617.441436	4638.840167	1901.663086	-11.534715
-6617.441436	4638.840167	1900.680664	102.084526
-6617.441436	4638.840167	1899.698242	84.301605
-6617.441436	4638.840167	1898.714844	-16.170589
-6617.441436	4638.840167	1897.732422	-12.060170
-6617.441436	4638.840167	1896.749023	16.350145
-6617.441436	4638.840167	1895.765625	39.879150
-6617.441436	4638.840167	1894.782227	90.121529
-6617.441436	4638.840167	1893.798828	40.717861
-6617.441436	4638.840167	1892.814453	-8.676660
-6617.441436	4638.840167	1891.831055	-43.489510
-6617.441436	4638.840167	1890.846680	16.405396
-6617.441436	4638.840167	1889.862305	85.979469
-6617.441436	4638.840167	1888.877930	-14.401368
-6617.441436	4638.840167	1887.892578	-126.889374
-6617.441436	4638.840167	1886.908203	-122.872871
-6617.441436	4638.840167	1885.922852	9.713079
-6617.441436	4638.840167	1884.937500	79.173424
-6617.441436	4638.840167	1883.952148	100.094521
-6617.441436	4638.840167	1882.965820	106.449303
-6617.441436	4638.840167	1881.980469	-66.602371
-6617.441436	4638.840167	1880.994141	58.526058
-6617.441436	4638.840167	1880.007813	98.779953
-6617.441436	4638.840167	1879.021484	-1.518500
-6617.441436	4638.840167	1878.035156	-55.763668
-6617.441436	4638.840167	1877.047852	-68.826439
-6617.441436	4638.840167	1876.061523	0.436549
-6617.441436	4638.840167	1875.074219	55.136135
-6617.441436	4638.840167	1874.086914	10.558805
-6617.441436	4638.840167	1873.098633	-63.054810
-6617.441436	4638.840167	1872.111328	32.727070
-6617.441436	4638.840167	1871.123047	2.660448
-6617.441436	4638.840167	1870.135742	54.832897
-6617.441436	4638.840167	1869.147461	-59.891705
-6617.441436	4638.840167	1868.158203	-19.840393
-6617.441436	4638.840167	1867.169922	90.289795
-6617.441436	4638.840167	1866.180664	45.680054
-6617.441436	4638.840167	1865.192383	56.655117
-6617.441436	4638.840167	1864.203125	33.788460
-6617.441436	4638.840167	1863.213867	18.164770
-6617.441436	4638.840167	1862.223633	-43.353386
-6617.441436	4638.840167	1861.234375	-15.516611
-6617.441436	4638.840167	1860.244141	29.196951
-6617.441436	4638.840167	1859.253906	-3.361122
-6617.441436	4638.840167	1858.263672	-2.132829
-6617.441436	4638.840167	1857.273438	37.688362
-6617.441436	4638.840167	1856.282227	108.842636
-6617.441436	4638.840167	1855.291992	49.710133
-6617.441436	4638.840167	1854.300781	0.232249
-6617.441436	4638.840167	1853.309570	158.112930
-6617.441436	4638.840167	1852.317383	7.359374
-6617.441436	4638.840167	1851.326172	-39.713337
-6617.441436	4638.840167	1850.333984	132.502823
-6617.441436	4638.840167	1849.342773	78.168686
-6617.441436	4638.840167	1848.350586	-65.285522
-6617.441436	4638.840167	1847.357422	27.319263
-6617.441436	4638.840167	1846.365234	13.927385
-6617.441436	4638.840167	1845.372070	99.231949
-6617.441436	4638.840167	1844.379883	15.999134
-6617.441436	4638.840167	1843.386719	-50.371223
-6617.441436	4638.840167	1842.393555	3.573746
-6617.441436	4638.840167	1841.399414	33.426315
-6617.441436	4638.840167	1840.406250	-117.136337
-6617.441436	4638.840167	1839.412109	30.530390
-6617.441436	4638.840167	1838.417969	65.124290
-6617.441436	4638.840167	1837.423828	32.382576
-6617.441436	4638.840167	1836.429688	30.881302
-6617.441436	4638.840167	1835.434570	72.617691
-6617.441436	4638.840167	1834.440430	143.153137
-6617.441436	4638.840167	1833.445313	74.327370
-6617.441436	4638.840167	1832.450195	79.960846
-6617.441436	4638.840167	1831.454102	-3.266166
-6617.441436	4638.840167	1830.458984	115.179520
-6617.441436	4638.840167	1829.462891	29.544273
-6617.441436	4638.840167	1828.466797	8.718913
-6617.441436	4638.840167	1827.470703	-36.108181
-6617.441436	4638.840167	1826.474609	79.788971
-6617.441436	4638.840167	1825.478516	70.908318
-6617.441436	4638.840167	1824.481445	-31.506994
-6617.441436	4638.840167	1823.484375	144.209839
-6617.441436	4638.840167	1822.487305	-8.552629
-6617.441436	4638.840167	1821.490234	95.161591
-6617.441436	4638.840167	1820.493164	33.485203
-6617.441436	4638.840167	1819.495117	14.936687
-6617.441436	4638.840167	1818.498047	39.492985
-6617.441436	4638.840167	1817.500000	-10.217100
-6617.441436	4638.840167	1816.500977	59.790188
-6617.441436	4638.840167	1815.502930	-68.938766
-6617.441436	4638.840167	1814.504883	53.674530
-6617.441436	4638.840167	1813.505859	118.790550
-6617.441436	4638.840167	1812.506836	52.274517
-6617.441436	4638.840167	1811.507813	38.391483
-6617.441436	4638.840167	1810.508789	-63.994610
-6617.441436	4638.840167	1809.508789	-70.714325
-6617.441436	4638.840167	1808.508789	-12.900169
-6617.441436	4638.840167	1807.508789	159.607208
-6617.441436	4638.840167	1806.508789	78.709106
-6617.441436	4638.840167	1805.508789	-18.902647
-6617.441436	4638.840167	1804.508789	-30.494719
-6617.441436	4638.840167	1803.507813	43.882748
-6617.441436	4638.840167	1802.506836	15.528273
-6617.441436	4638.840167	1801.505859	-58.198345
-6617.441436	4638.840167	1800.504883	-57.915329
-6617.441436	4638.840167	1799.502930	16.333958
-6617.441436	4638.840167	1798.501953	-4.911302
-6617.441436	4638.840167	1797.500000	26.317863
-6617.441436	4638.840167	1796.498047	36.048111
-6617.441436	4638.840167	1795.496094	160.228622
-6617.441436	4638.840167	1794.493164	2.981449
-6617.441436	4638.840167	1793.491211	-25.490431
-6617.441436	4638.840167	1792.488281	17.532259
-6617.441436	4638.840167	1791.485352	-32.419815
-6617.441436	4638.840167	1790.482422	184.478989
-6617.441436	4638.840167	1789.478516	-58.480373
-6617.441436	4638.840167	1788.475586	-53.669479
-6617.441436	4638.840167	1787.471680	-32.212471
-6617.441436	4638.840167	1786.467773	-82.207489
-6617.441436	4638.840167	1785.463867	-125.062523
-6617.441436	4638.840167	1784.459961	12.950682
-6617.441436	4638.840167	1783.455078	-37.085781
-6617.441436	4638.840167	1782.450195	86.543274
-6617.441436	4638.840167	1781.445313	12.686934
-6617.441436	4638.840167	1780.440430	52.986309
-6617.441436	4638.840167	1779.435547	64.719208
-6617.441436	4638.840167	1778.429688	55.030888
-6617.441436	4638.840167	1777.424805	142.773849
-6617.441436	4638.840167	1776.418945	-59.444504
-6617.441436	4638.840167	1775.413086	-38.278236
-6617.441436	4638.840167	1774.406250	-33.769661
-6617.441436	4638.840167	1773.400391	56.216602
-6617.441436	4638.840167	1772.393555	-20.066683
-6617.441436	4638.840167	1771.386719	3.367622
-6617.441436	4638.840167	1770.379883	50.508289
-6617.441436	4638.840167	1769.373047	31.163921
-6617.441436	4638.840167	1768.365234	64.003532
-6617.441436	4638.840167	1767.358398	23.273090
-6617.441436	4638.840167	1766.350586	10.997612
-6617.441436	4638.840167	1765.342773	-8.407906
-6617.441436	4638.840167	1764.334961	40.929604
-6617.441436	4638.840167	1763.326172	87.855339
-6617.441436	4638.840167	1762.318359	-45.372318
-6617.441436	4638.840167	1761.309570	-43.509293
-6617.441436	4638.840167	1760.300781	-79.572128
-6617.441436	4638.840167	1759.291016	-13.792823
-6617.441436	4638.840167	1758.282227	96.938705
-6617.441436	4638.840167	1757.272461	-17.327442
-6617.441436	4638.840167	1756.262695	3.364444
-6617.441436	4638.840167	1755.252930	-39.876221
-6617.441436	4638.840167	1754.243164	-54.724194
-6617.441436	4638.840167	1753.233398	32.148201
-6617.441436	4638.840167	1752.222656	59.828671
-6617.441436	4638.840167	1751.211914	35.448322
-6617.441436	4638.840167	1750.201172	77.265511
-6617.441436	4638.840167	1749.190430	15.025403
-6617.441436	4638.840167	1748.179688	-51.937954
-6617.441436	4638.840167	1747.167969	-14.916817
-6617.441436	4638.840167	1746.156250	12.619925
-6617.441436	4638.840167	1745.144531	33.039036
-6617.441436	4638.840167	1744.132813	-81.195061
-6617.441436	4638.840167	1743.121094	73.795631
-6617.441436	4638.840167	1742.108398	-19.195278
-6617.441436	4638.840167	1741.095703	-22.471054
-6617.441436	4638.840167	1740.083008	49.756958
-6617.441436	4638.840167	1739.070313	58.228584
-6617.441436	4638.840167	1738.057617	21.853569
-6617.441436	4638.840167	1737.043945	-49.909515
-6617.441436	4638.840167	1736.030273	-22.617735
-6617.441436	4638.840167	1735.016602	40.011715
-6617.441436	4638.840167	1734.002930	13.018961
-6617.441436	4638.840167	1732.989258	82.650681
-6617.441436	4638.840167	1731.974609	-0.935411
-6617.441436	4638.840167	1730.959961	-51.523823
-6617.441436	4638.840167	1729.945313	-83.267776
-6617.441436	4638.840167	1728.930664	104.007156
-6617.441436	4638.840167	1727.916016	-54.942585
-6617.441436	4638.840167	1726.900391	-41.994991
-6617.441436	4638.840167	1725.885742	-33.776081
-6617.441436	4638.840167	1724.870117	-39.700668
-6617.441436	4638.840167	1723.853516	76.704460
-6617.441436	4638.840167	1722.837891	47.201092
-6617.441436	4638.840167	1721.822266	-41.107841
-6617.441436	4638.840167	1720.805664	-49.452477
-6617.441436	4638.840167	1719.789063	-46.056564
-6617.441436	4638.840167	1718.772461	58.396919
-6617.441436	4638.840167	1717.754883	47.632870
-6617.441436	4638.840167	1716.738281	-14.835742
-6617.441436	4638.840167	1715.720703	108.291336
-6617.441436	4638.840167	1714.703125	111.564857
-6617.441436	4638.840167	1713.685547	93.685150
-6617.441436	4638.840167	1712.667969	111.013680
-6617.441436	4638.840167	1711.649414	-21.921007
-6617.441436	4638.840167	1710.630859	98.655533
-6617.441436	4638.840167	1709.612305	71.336220
-6617.441436	4638.840167	1708.593750	83.895126
-6617.441436	4638.840167	1707.575195	49.519901
-6617.441436	4638.840167	1706.555664	57.352310
-6617.441436	4638.840167	1705.536133	62.821178
-6617.441436	4638.840167	1704.516602	155.011627
-6617.441436	4638.840167	1703.497070	270.589813
-6617.441436	4638.840167	1702.477539	46.314224
-6617.441436	4638.840167	1701.457031	11.885628
-6617.441436	4638.840167	1700.437500	47.733498
-6617.441436	4638.840167	1699.416992	-28.869184
-6617.441436	4638.840167	1698.395508	-23.503834
-6617.441436	4638.840167	1697.375000	33.353348
-6617.441436	4638.840167	1696.354492	22.293747
-6617.441436	4638.840167	1695.333008	-19.202614
-6617.441436	4638.840167	1694.311523	128.827438
-6617.441436	4638.840167	1693.290039	42.850399
-6617.441436	4638.840167	1692.267578	22.378960
-6617.441436	4638.840167	1691.246094	-40.187431
-6617.441436	4638.840167	1690.223633	145.083176
-6617.441436	4638.840167	1689.201172	70.799538
-6617.441436	4638.840167	1688.178711	90.016045
-6617.441436	4638.840167	1687.155273	-33.327408
-6617.441436	4638.840167	1686.132813	27.927536
-6617.441436	4638.840167	1685.109375	-95.382004
-6617.441436	4638.840167	1684.085938	70.922142
-6617.441436	4638.840167	1683.062500	-26.689142
-6617.441436	4638.840167	1682.039063	-2.885574
-6617.441436	4638.840167	1681.014648	74.574944
-6617.441436	4638.840167	1679.990234	58.653324
-6617.441436	4638.840167	1678.965820	33.394207
-6617.441436	4638.840167	1677.941406	33.792423
-6617.441436	4638.840167	1676.916992	-0.803186
-6617.441436	4638.840167	1675.891602	-82.033867
-6617.441436	4638.840167	1674.866211	37.244953
-6617.441436	4638.840167	1673.840820	65.565216
-6617.441436	4638.840167	1672.815430	21.623430
-6617.441436	4638.840167	1671.790039	28.946169
-6617.441436	4638.840167	1670.763672	-33.630791
-6617.441436	4638.840167	1669.737305	45.877014
-6617.441436	4638.840167	1668.710938	43.844311
-6617.441436	4638.840167	1667.684570	-23.383953
-6617.441436	4638.840167	1666.658203	-58.008247
-6617.441436	4638.840167	1665.630859	23.730522
-6617.441436	4638.840167	1664.603516	40.278770
-6617.441436	4638.840167	1663.576172	94.034187
-6617.441436	4638.840167	1662.548828	-10.399497
-6617.441436	4638.840167	1661.520508	164.247543
-6617.441436	4638.840167	1660.493164	129.574524
-6617.441436	4638.840167	1659.464844	60.035889
-6617.441436	4638.840167	1658.436523	53.267067
-6617.441436	4638.840167	1657.408203	-6.949483
-6617.441436	4638.840167	1656.378906	-95.030991
-6617.441436	4638.840167	1655.350586	91.000755
-6617.441436	4638.840167	1654.321289	33.110878
-6617.441436	4638.840167	1653.291992	86.685326
-6617.441436	4638.840167	1652.261719	142.550995
-6617.441436	4638.840167	1651.232422	240.169556
-6617.441436	4638.840167	1650.202148	77.847374
-6617.441436	4638.840167	1649.171875	112.785881
-6617.441436	4638.840167	1648.141602	8.530227
-6617.441436	4638.840167	1647.111328	78.246178
-6617.441436	4638.840167	1646.080078	140.971085
-6617.441436	4638.840167	1645.049805	-2.652716
-6617.441436	4638.840167	1644.018555	-14.114252
-6617.441436	4638.840167	1642.987305	62.483700
-6617.441436	4638.840167	1641.955078	122.827400
-6617.441436	4638.840167	1640.923828	104.388329
-6617.441436	4638.840167	1639.891602	211.013855
-6617.441436	4638.840167	1638.859375	224.973282
-6617.441436	4638.840167	1637.827148	160.211197
-6617.441436	4638.840167	1636.794922	118.618965
-6617.441436	4638.840167	1635.761719	227.460007
-6617.441436	4638.840167	1634.729492	63.237518
-6617.441436	4638.840167	1633.696289	266.889221
-6617.441436	4638.840167	1632.662109	301.618988
-6617.441436	4638.840167	1631.628906	139.783051
-6617.441436	4638.840167	1630.594727	75.107712
-6617.441436	4638.840167	1629.561523	174.577621
-6617.441436	4638.840167	1628.527344	102.986473
-6617.441436	4638.840167	1627.493164	86.877975
-6617.441436	4638.840167	1626.458008	91.563896
-6617.441436	4638.840167	1625.423828	285.648529
-6617.441436	4638.840167	1624.388672	202.543228
-6617.441436	4638.840167	1623.353516	276.470428
-6617.441436	4638.840167	1622.318359	285.736053
-6617.441436	4638.840167	1621.282227	241.914093
-6617.441436	4638.840167	1620.247070	267.337799
-6617.441436	4638.840167	1619.210938	348.119263
-6617.441436	4638.840167	1618.174805	230.506271
-6617.441436	4638.840167	1617.137695	193.652451
-6617.441436	4638.840167	1616.101563	232.906143
-6617.441436	4638.840167	1615.064453	228.345306
-6617.441436	4638.840167	1614.027344	283.713318
-6617.441436	4638.840167	1612.990234	302.194519
-6617.441436	4638.840167	1611.953125	140.969376
-6617.441436	4638.840167	1610.916016	323.021973
-6617.441436	4638.840167	1609.877930	323.069458
-6617.441436	4638.840167	1608.839844	362.264374
-6617.441436	4638.840167	1607.801758	353.105042
-6617.441436	4638.840167	1606.763672	334.747925
-6617.441436	4638.840167	1605.724609	348.616730
-6617.441436	4638.840167	1604.685547	429.206757
-6617.441436	4638.840167	1603.646484	367.153534
-6617.441436	4638.840167	1602.607422	321.229248
-6617.441436	4638.840167	1601.568359	413.293060
-6617.441436	4638.840167	1600.528320	392.675903
-6617.441436	4638.840167	1599.489258	422.643921
-6617.441436	4638.840167	1598.449219	622.659546
-6617.441436	4638.840167	1597.408203	542.294312
-6617.441436	4638.840167	1596.368164	390.759613
-6617.441436	4638.840167	1595.327148	276.036041
-6617.441436	4638.840167	1594.287109	452.993073
-6617.441436	4638.840167	1593.246094	365.868195
-6617.441436	4638.840167	1592.204102	336.166992
-6617.441436	4638.840167	1591.163086	496.967010
-6617.441436	4638.840167	1590.121094	389.258118
-6617.441436	4638.840167	1589.079102	444.475983
-6617.441436	4638.840167	1588.037109	414.820038
-6617.441436	4638.840167	1586.995117	428.754364
-6617.441436	4638.840167	1585.953125	268.451630
-6617.441436	4638.840167	1584.910156	282.426971
-6617.441436	4638.840167	1583.867188	427.038269
-6617.441436	4638.840167	1582.824219	369.968445
-6617.441436	4638.840167	1581.781250	562.636658
-6617.441436	4638.840167	1580.737305	441.450226
-6617.441436	4638.840167	1579.693359	354.672241
-6617.441436	4638.840167	1578.649414	405.312256
-6617.441436	4638.840167	1577.605469	355.224976
-6617.441436	4638.840167	1576.561523	511.146545
-6617.441436	4638.840167	1575.516602	493.115112
-6617.441436	4638.840167	1574.472656	509.422668
-6617.441436	4638.840167	1573.427734	450.253845
-6617.441436	4638.840167	1572.381836	427.708008
-6617.441436	4638.840167	1571.336914	391.469147
-6617.441436	4638.840167	1570.291016	675.287415
-6617.441436	4638.840167	1569.246094	328.215790
-6617.441436	4638.840167	1568.200195	463.436157
-6617.441436	4638.840167	1567.153320	447.831543
-6617.441436	4638.840167	1566.107422	286.066315
-6617.441436	4638.840167	1565.060547	398.419952
-6617.441436	4638.840167	1564.013672	314.385925
-6617.441436	4638.840167	1562.966797	333.126495
-6617.441436	4638.840167	1561.919922	475.122864
-6617.441436	4638.840167	1560.872070	338.683960
-6617.441436	4638.840167	1559.825195	391.679474
-6617.441436	4638.840167	1558.777344	346.583923
-6617.441436	4638.840167	1557.729492	374.501465
-6617.441436	4638.840167	1556.680664	436.623871
-6617.441436	4638.840167	1555.632813	284.453491
-6617.441436	4638.840167	1554.583984	373.954773
-6617.441436	4638.840167	1553.535156	379.123840
-6617.441436	4638.840167	1552.486328	224.827118
-6617.441436	4638.840167	1551.436523	166.277008
-6617.441436	4638.840167	1550.387695	148.765198
-6617.441436	4638.840167	1549.337891	270.170868
-6617.441436	4638.840167	1548.288086	343.741516
-6617.441436	4638.840167	1547.238281	303.497833
-6617.441436	4638.840167	1546.187500	67.583015
-6617.441436	4638.840167	1545.136719	129.829422
-6617.441436	4638.840167	1544.086914	276.238831
-6617.441436	4638.840167	1543.035156	67.817009
-6617.441436	4638.840167	1541.984375	264.243164
-6617.441436	4638.840167	1540.933594	201.446091
-6617.441436	4638.840167	1539.881836	140.965042
-6617.441436	4638.840167	1538.830078	155.520493
-6617.441436	4638.840167	1537.778320	188.267899
-6617.441436	4638.840167	1536.725586	-47.026882
-6617.441436	4638.840167	1535.673828	131.144073
-6617.441436	4638.840167	1534.621094	111.712738
-6617.441436	4638.840167	1533.568359	-52.984356
-6617.441436	4638.840167	1532.515625	75.209724
-6617.441436	4638.840167	1531.461914	182.949127
-6617.441436	4638.840167	1530.409180	292.939789
-6617.441436	4638.840167	1529.355469	176.061646
-6617.441436	4638.840167	1528.301758	174.921112
-6617.441436	4638.840167	1527.247070	130.718353
-6617.441436	4638.840167	1526.193359	-15.461976
-6617.441436	4638.840167	1525.138672	196.570267
-6617.441436	4638.840167	1524.083984	125.265182
-6617.441436	4638.840167	1523.029297	-104.591408
-6617.441436	4638.840167	1521.974609	59.832695
-6617.441436	4638.840167	1520.918945	-4.538620
-6617.441436	4638.840167	1519.863281	57.948273
-6617.441436	4638.840167	1518.807617	91.003006
-6617.441436	4638.840167	1517.751953	-66.067139
-6617.441436	4638.840167	1516.696289	55.308800
-6617.441436	4638.840167	1515.639648	-31.501818
-6617.441436	4638.840167	1514.583008	-9.668250
-6617.441436	4638.840167	1513.526367	77.772537
-6617.441436	4638.840167	1512.469727	-103.889259
-6617.441436	4638.840167	1511.412109	-93.283752
-6617.441436	4638.840167	1510.355469	-41.967178
-6617.441436	4638.840167	1509.297852	-26.805813
-6617.441436	4638.840167	1508.240234	69.717438
-6617.441436	4638.840167	1507.181641	-86.786217
-6617.441436	4638.840167	1506.124023	104.625305
-6617.441436	4638.840167	1505.065430	63.395981
-6617.441436	4638.840167	1504.006836	85.425606
-6617.441436	4638.840167	1502.948242	30.726519
-6617.441436	4638.840167	1501.888672	-35.209103
-6617.441436	4638.840167	1500.830078	-46.936996
-6617.441436	4638.840167	1499.770508	45.137932
-6617.441436	4638.840167	1498.710938	-70.299004
-6617.441436	4638.840167	1497.650391	-63.893234
-6617.441436	4638.840167	1496.590820	-57.460472
-6617.441436	4638.840167	1495.530273	-8.174954
-6617.441436	4638.840167	1494.469727	-24.237719
-6617.441436	4638.840167	1493.409180	103.940697
-6617.441436	4638.840167	1492.348633	4.565475
-6617.441436	4638.840167	1491.287109	-58.705433
-6617.441436	4638.840167	1490.225586	31.205624
-6617.441436	4638.840167	1489.164063	-88.274002
-6617.441436	4638.840167	1488.102539	15.170712
-6617.441436	4638.840167	1487.041016	244.634109
-6617.441436	4638.840167	1485.978516	109.518394
-6617.441436	4638.840167	1484.916016	71.215050
-6617.441436	4638.840167	1483.853516	98.193390
-6617.441436	4638.840167	1482.791016	26.240618
-6617.441436	4638.840167	1481.727539	-32.165764
-6617.441436	4638.840167	1480.664063	24.122437
-6617.441436	4638.840167	1479.600586	-97.116386
-6617.441436	4638.840167	1478.537109	-34.040852
-6617.441436	4638.840167	1477.473633	-101.257332
-6617.441436	4638.840167	1476.409180	-166.123154
-6617.441436	4638.840167	1475.344727	-49.163113
-6617.441436	4638.840167	1474.280273	101.451447
-6617.441436	4638.840167	1473.215820	-26.121212
-6617.441436	4638.840167	1472.151367	19.013021
-6617.441436	4638.840167	1471.085938	-63.540646
-6617.441436	4638.840167	1470.020508	-130.343796
-6617.441436	4638.840167	1468.955078	26.987396
-6617.441436	4638.840167	1467.888672	-53.155148
-6617.441436	4638.840167	1466.823242	-61.658112
-6617.441436	4638.840167	1465.756836	12.756934
-6617.441436	4638.840167	1464.690430	69.250900
-6617.441436	4638.840167	1463.624023	60.867764
-6617.441436	4638.840167	1462.556641	-130.907654
-6617.441436	4638.840167	1461.490234	46.413647
-6617.441436	4638.840167	1460.422852	-6.501942
-6617.441436	4638.840167	1459.355469	50.317368
-6617.441436	4638.840167	1458.287109	68.521545
-6617.441436	4638.840167	1457.219727	62.962616
-6617.441436	4638.840167	1456.151367	117.151932
-6617.441436	4638.840167	1455.083008	62.150513
-6617.441436	4638.840167	1454.014648	0.005731
-6617.441436	4638.840167	1452.945313	221.842300
-6617.441436	4638.840167	1451.876953	108.896698
-6617.441436	4638.840167	1450.807617	43.061432
-6617.441436	4638.840167	1449.738281	119.866585
-6617.441436	4638.840167	1448.668945	229.332672
-6617.441436	4638.840167	1447.598633	46.486874
-6617.441436	4638.840167	1446.528320	-65.939148
-6617.441436	4638.840167	1445.458008	-28.789633
-6617.441436	4638.840167	1444.387695	47.903667
-6617.441436	4638.840167	1443.317383	61.115353
-6617.441436	4638.840167	1442.246094	-43.487614
-6617.441436	4638.840167	1441.174805	56.349709
-6617.441436	4638.840167	1440.103516	13.298691
-6617.441436	4638.840167	1439.032227	78.312920
-6617.441436	4638.840167	1437.960938	41.115032
-6617.441436	4638.840167	1436.888672	92.417534
-6617.441436	4638.840167	1435.816406	164.876099
-6617.441436	4638.840167	1434.744141	34.300720
-6617.441436	4638.840167	1433.670898	76.817596
-6617.441436	4638.840167	1432.598633	82.325180
-6617.441436	4638.840167	1431.525391	147.256531
-6617.441436	4638.840167	1430.452148	76.408760
-6617.441436	4638.840167	1429.378906	-9.240162
-6617.441436	4638.840167	1428.304688	-29.882786
-6617.441436	4638.840167	1427.231445	-64.997398
-6617.441436	4638.840167	1426.157227	91.989944
-6617.441436	4638.840167	1425.083008	-120.230247
-6617.441436	4638.840167	1424.007813	-24.622404
-6617.441436	4638.840167	1422.933594	-68.250984
-6617.441436	4638.840167	1421.858398	61.299480
-6617.441436	4638.840167	1420.783203	95.143692
-6617.441436	4638.840167	1419.708008	-17.473795
-6617.441436	4638.840167	1418.631836	-18.077812
-6617.441436	4638.840167	1417.555664	3.280220
-6617.441436	4638.840167	1416.479492	57.408821
-6617.441436	4638.840167	1415.403320	104.621391
-6617.441436	4638.840167	1414.327148	126.065315
-6617.441436	4638.840167	1413.250000	66.285713
-6617.441436	4638.840167	1412.173828	60.883530
-6617.441436	4638.840167	1411.096680	103.703995
-6617.441436	4638.840167	1410.018555	69.248085
-6617.441436	4638.840167	1408.941406	20.913441
-6617.441436	4638.840167	1407.863281	-11.682083
-6617.441436	4638.840167	1406.785156	97.418571
-6617.441436	4638.840167	1405.707031	-25.239279
-6617.441436	4638.840167	1404.628906	55.366722
-6617.441436	4638.840167	1403.549805	23.775091
-6617.441436	4638.840167	1402.470703	73.044327
-6617.441436	4638.840167	1401.391602	68.684586
-6617.441436	4638.840167	1400.312500	64.643990
-6617.441436	4638.840167	1399.233398	14.121647
-6617.441436	4638.840167	1398.153320	15.497021
-6617.441436	4638.840167	1397.073242	-17.134914
-6617.441436	4638.840167	1395.993164	38.405411
-6617.441436	4638.840167	1394.913086	22.404495
-6617.441436	4638.840167	1393.832031	145.507523
-6617.441436	4638.840167	1392.750977	59.195084
-6617.441436	4638.840167	1391.669922	-15.730199
-6617.441436	4638.840167	1390.588867	58.938080
-6617.441436	4638.840167	1389.506836	140.886703
-6617.441436	4638.840167	1388.425781	109.708527
-6617.441436	4638.840167	1387.343750	97.487244
-6617.441436	4638.840167	1386.261719	-54.888531
-6617.441436	4638.840167	1385.178711	101.274925
-6617.441436	4638.840167	1384.096680	77.689888
-6617.441436	4638.840167	1383.013672	67.795700
-6617.441436	4638.840167	1381.930664	78.547279
-6617.441436	4638.840167	1380.846680	103.714615
-6617.441436	4638.840167	1379.763672	15.542485
-6617.441436	4638.840167	1378.679688	53.075401
-6617.441436	4638.840167	1377.595703	60.607540
-6617.441436	4638.840167	1376.511719	66.161690
-6617.441436	4638.840167	1375.427734	-136.375580
-6617.441436	4638.840167	1374.342773	18.248745
-6617.441436	4638.840167	1373.257813	47.575802
-6617.441436	4638.840167	1372.172852	87.528282
-6617.441436	4638.840167	1371.087891	51.534721
-6617.441436	4638.840167	1370.001953	36.653412
-6617.441436	4638.840167	1368.916992	27.599331
-6617.441436	4638.840167	1367.831055	12.463844
-6617.441436	4638.840167	1366.744141	-92.837624
-6617.441436	4638.840167	1365.658203	74.980560
-6617.441436	4638.840167	1364.571289	-36.800655
-6617.441436	4638.840167	1363.484375	132.600861
-6617.441436	4638.840167	1362.397461	4.742521
-6617.441436	4638.840167	1361.310547	38.456192
-6617.441436	4638.840167	1360.222656	58.493706
-6617.441436	4638.840167	1359.135742	-61.516823
-6617.441436	4638.840167	1358.047852	84.575462
-6617.441436	4638.840167	1356.958984	13.933019
-6617.441436	4638.840167	1355.871094	59.469486
-6617.441436	4638.840167	1354.782227	80.649796
-6617.441436	4638.840167	1353.693359	4.263665
-6617.441436	4638.840167	1352.604492	75.252785
-6617.441436	4638.840167	1351.515625	84.052025
-6617.441436	4638.840167	1350.425781	13.674613
-6617.441436	4638.840167	1349.335938	-88.434059
-6617.441436	4638.840167	1348.246094	-37.472435
-6617.441436	4638.840167	1347.156250	2.433301
-6617.441436	4638.840167	1346.066406	-131.361099
-6617.441436	4638.840167	1344.975586	84.787582
-6617.441436	4638.840167	1343.884766	69.027740
-6617.441436	4638.840167	1342.793945	0.127722
-6617.441436	4638.840167	1341.702148	-19.053867
-6617.441436	4638.840167	1340.611328	43.389168
-6617.441436	4638.840167	1339.519531	41.247509
-6617.441436	4638.840167	1338.427734	87.340828
-6617.441436	4638.840167	1337.334961	-14.658713
-6617.441436	4638.840167	1336.243164	7.289681
-6617.441436	4638.840167	1335.150391	114.897247
-6617.441436	4638.840167	1334.057617	14.550484
-6617.441436	4638.840167	1332.964844	97.690567
-6617.441436	4638.840167	1331.871094	105.933098
-6617.441436	4638.840167	1330.778320	89.175133
-6617.441436	4638.840167	1329.684570	157.229645
-6617.441436	4638.840167	1328.590820	2.735472
-6617.441436	4638.840167	1327.496094	86.344406
-6617.441436	4638.840167	1326.402344	134.993408
-6617.441436	4638.840167	1325.307617	26.639620
-6617.441436	4638.840167	1324.212891	114.512138
-6617.441436	4638.840167	1323.117188	49.416142
-6617.441436	4638.840167	1322.022461	204.573120
-6617.441436	4638.840167	1320.926758	40.666893
-6617.441436	4638.840167	1319.831055	208.827377
-6617.441436	4638.840167	1318.735352	156.688141
-6617.441436	4638.840167	1317.638672	124.904007
-6617.441436	4638.840167	1316.542969	55.714401
-6617.441436	4638.840167	1315.446289	129.943420
-6617.441436	4638.840167	1314.349609	45.062710
-6617.441436	4638.840167	1313.251953	194.653427
-6617.441436	4638.840167	1312.155273	-3.250216
-6617.441436	4638.840167	1311.057617	48.602276
-6617.441436	4638.840167	1309.959961	64.232269
-6617.441436	4638.840167	1308.862305	58.395378
-6617.441436	4638.840167	1307.763672	39.044918
-6617.441436	4638.840167	1306.665039	-10.815861
-6617.441436	4638.840167	1305.566406	-44.784855
-6617.441436	4638.840167	1304.467773	-21.776377
-6617.441436	4638.840167	1303.369141	88.634621
-6617.441436	4638.840167	1302.269531	199.293106
-6617.441436	4638.840167	1301.169922	202.741348
-6617.441436	4638.840167	1300.070313	152.988342
-6617.441436	4638.840167	1298.970703	99.799500
-6617.441436	4638.840167	1297.870117	125.775185
-6617.441436	4638.840167	1296.769531	97.802826
-6617.441436	4638.840167	1295.668945	129.032074
-6617.441436	4638.840167	1294.568359	51.036392
-6617.441436	4638.840167	1293.466797	138.578827
-6617.441436	4638.840167	1292.366211	92.343994
-6617.441436	4638.840167	1291.264648	81.716133
-6617.441436	4638.840167	1290.162109	22.815121
-6617.441436	4638.840167	1289.060547	108.359222
-6617.441436	4638.840167	1287.958008	58.272278
-6617.441436	4638.840167	1286.855469	98.774117
-6617.441436	4638.840167	1285.752930	88.241447
-6617.441436	4638.840167	1284.650391	181.817551
-6617.441436	4638.840167	1283.546875	95.301697
-6617.441436	4638.840167	1282.444336	135.294830
-6617.441436	4638.840167	1281.339844	115.649300
-6617.441436	4638.840167	1280.236328	90.653374
-6617.441436	4638.840167	1279.132813	121.140465
-6617.441436	4638.840167	1278.028320	105.590523
-6617.441436	4638.840167	1276.923828	62.732590
-6617.441436	4638.840167	1275.819336	47.685543
-6617.441436	4638.840167	1274.713867	160.821442
-6617.441436	4638.840167	1273.608398	60.177402
-6617.441436	4638.840167	1272.503906	143.153320
-6617.441436	4638.840167	1271.397461	103.011887
-6617.441436	4638.840167	1270.291992	22.586094
-6617.441436	4638.840167	1269.185547	-2.586205
-6617.441436	4638.840167	1268.080078	18.957108
-6617.441436	4638.840167	1266.972656	4.926548
-6617.441436	4638.840167	1265.866211	-42.323475
-6617.441436	4638.840167	1264.759766	-7.283179
-6617.441436	4638.840167	1263.652344	9.380969
-6617.441436	4638.840167	1262.544922	-57.380878
-6617.441436	4638.840167	1261.436523	-19.124338
-6617.441436	4638.840167	1260.329102	61.398773
-6617.441436	4638.840167	1259.220703	49.005695
-6617.441436	4638.840167	1258.112305	-20.546303
-6617.441436	4638.840167	1257.003906	13.631688
-6617.441436	4638.840167	1255.895508	-5.144661
-6617.441436	4638.840167	1254.786133	4.580279
-6617.441436	4638.840167	1253.676758	26.104296
-6617.441436	4638.840167	1252.567383	26.871477
-6617.441436	4638.840167	1251.458008	-45.887955
-6617.441436	4638.840167	1250.347656	58.185452
-6617.441436	4638.840167	1249.237305	-0.621760
-6617.441436	4638.840167	1248.126953	1.372299
-6617.441436	4638.840167	1247.016602	76.090721
-6617.441436	4638.840167	1245.905273	22.030664
-6617.441436	4638.840167	1244.793945	-72.027679
-6617.441436	4638.840167	1243.682617	-2.970780
-6617.441436	4638.840167	1242.571289	21.103464
-6617.441436	4638.840167	1241.459961	-87.618660
-6617.441436	4638.840167	1240.347656	3.424452
-6617.441436	4638.840167	1239.235352	14.869449
-6617.441436	4638.840167	1238.123047	29.222927
-6617.441436	4638.840167	1237.009766	84.914665
-6617.441436	4638.840167	1235.897461	12.560472
-6617.441436	4638.840167	1234.784180	-49.933472
-6617.441436	4638.840167	1233.670898	-19.978859
-6617.441436	4638.840167	1232.556641	67.406334
-6617.441436	4638.840167	1231.443359	-11.334924
-6617.441436	4638.840167	1230.329102	60.960377
-6617.441436	4638.840167	1229.214844	4.779972
-6617.441436	4638.840167	1228.099609	5.086829
-6617.441436	4638.840167	1226.985352	45.339577
-6617.441436	4638.840167	1225.870117	-0.908666
-6617.441436	4638.840167	1224.754883	-7.180889
-6617.441436	4638.840167	1223.639648	-58.281513
-6617.441436	4638.840167	1222.523438	-55.981468
-6617.441436	4638.840167	1221.408203	26.947929
-6617.441436	4638.840167	1220.291992	-59.104774
-6617.441436	4638.840167	1219.174805	-32.995274
-6617.441436	4638.840167	1218.058594	-39.845448
-6617.441436	4638.840167	1216.941406	-47.321949
-6617.441436	4638.840167	1215.824219	-21.757301
-6617.441436	4638.840167	1214.707031	-64.782578
-6617.441436	4638.840167	1213.589844	-82.041542
-6617.441436	4638.840167	1212.471680	-82.726051
-6617.441436	4638.840167	1211.353516	-6.983056
-6617.441436	4638.840167	1210.235352	-17.256123
-6617.441436	4638.840167	1209.117188	-71.592827
-6617.441436	4638.840167	1207.998047	-82.324669
-6617.441436	4638.840167	1206.878906	-7.806118
-6617.441436	4638.840167	1205.759766	97.098869
-6617.441436	4638.840167	1204.640625	-33.937550
-6617.441436	4638.840167	1203.520508	24.133467
-6617.441436	4638.840167	1202.401367	-7.430886
-6617.441436	4638.840167	1201.281250	9.435031
-6617.441436	4638.840167	1200.160156	-79.466751
-6617.441436	4638.840167	1199.040039	-1.255934
-6617.441436	4638.840167	1197.918945	57.606712
-6617.441436	4638.840167	1196.797852	66.459679
-6617.441436	4638.840167	1195.676758	-52.844181
-6617.441436	4638.840167	1194.555664	-45.372936
-6617.441436	4638.840167	1193.433594	-20.831701
-6617.441436	4638.840167	1192.311523	-16.223742
-6617.441436	4638.840167	1191.189453	-8.894454
-6617.441436	4638.840167	1190.066406	-20.934233
-6617.441436	4638.840167	1188.944336	6.779072
-6617.441436	4638.840167	1187.821289	-50.235455
-6617.441436	4638.840167	1186.698242	2.365165
-6617.441436	4638.840167	1185.574219	47.640896
-6617.441436	4638.840167	1184.451172	-95.759178
-6617.441436	4638.840167	1183.327148	-30.227167
-6617.441436	4638.840167	1182.203125	-98.841438
-6617.441436	4638.840167	1181.078125	-29.968815
-6617.441436	4638.840167	1179.954102	14.895340
-6617.441436	4638.840167	1178.829102	-64.290565
-6617.441436	4638.840167	1177.704102	10.267697
-6617.441436	4638.840167	1176.579102	4.801919
-6617.441436	4638.840167	1175.453125	-42.202229
-6617.441436	4638.840167	1174.327148	28.647671
-6617.441436	4638.840167	1173.201172	-49.687103
-6617.441436	4638.840167	1172.075195	-26.434231
-6617.441436	4638.840167	1170.949219	-26.015738
-6617.441436	4638.840167	1169.822266	59.873837
-6617.441436	4638.840167	1168.695313	-16.276350
-6617.441436	4638.840167	1167.568359	-73.931763
-6617.441436	4638.840167	1166.440430	-72.174667
-6617.441436	4638.840167	1165.313477	9.260610
-6617.441436	4638.840167	1164.185547	-69.464645
-6617.441436	4638.840167	1163.057617	10.784782
-6617.441436	4638.840167	1161.928711	28.798666
-6617.441436	4638.840167	1160.800781	22.212420
-6617.441436	4638.840167	1159.671875	22.639376
-6617.441436	4638.840167	1158.541992	-47.582729
-6617.441436	4638.840167	1157.413086	-51.743202
-6617.441436	4638.840167	1156.283203	14.426007
-6617.441436	4638.840167	1155.154297	-50.499119
-6617.441436	4638.840167	1154.023438	9.432782
-6617.441436	4638.840167	1152.893555	42.354599
-6617.441436	4638.840167	1151.763672	37.685925
-6617.441436	4638.840167	1150.632813	-27.840710
-6617.441436	4638.840167	1149.501953	-29.999088
-6617.441436	4638.840167	1148.370117	49.657173
-6617.441436	4638.840167	1147.239258	120.880997
-6617.441436	4638.840167	1146.107422	-20.513376
-6617.441436	4638.840167	1144.975586	-30.844101
-6617.441436	4638.840167	1143.843750	-65.559517
-6617.441436	4638.840167	1142.710938	-29.358309
-6617.441436	4638.840167	1141.578125	-45.846188
-6617.441436	4638.840167	1140.445313	-126.658005
-6617.441436	4638.840167	1139.312500	25.226179
-6617.441436	4638.840167	1138.178711	-69.130165
-6617.441436	4638.840167	1137.045898	-67.215065
-6617.441436	4638.840167	1135.912109	-19.976709
-6617.441436	4638.840167	1134.777344	11.697088
-6617.441436	4638.840167	1133.643555	49.774948
-6617.441436	4638.840167	1132.508789	41.872070
-6617.441436	4638.840167	1131.374023	-94.767494
-6617.441436	4638.840167	1130.239258	38.468987
-6617.441436	4638.840167	1129.104492	87.972076
-6617.441436	4638.840167	1127.968750	152.041946
-6617.441436	4638.840167	1126.833008	29.941767
-6617.441436	4638.840167	1125.697266	109.610443
-6617.441436	4638.840167	1124.560547	81.943321
-6617.441436	4638.840167	1123.424805	114.891731
-6617.441436	4638.840167	1122.288086	49.814774
-6617.441436	4638.840167	1121.151367	78.675400
-6617.441436	4638.840167	1120.013672	70.660423
-6617.441436	4638.840167	1118.876953	132.123138
-6617.441436	4638.840167	1117.739258	112.056808
-6617.441436	4638.840167	1116.601563	9.925452
-6617.441436	4638.840167	1115.462891	23.285446
-6617.441436	4638.840167	1114.324219	23.974356
-6617.441436	4638.840167	1113.186523	33.259010
-6617.441436	4638.840167	1112.046875	27.209429
-6617.441436	4638.840167	1110.908203	-95.050606
-6617.441436	4638.840167	1109.769531	24.984488
-6617.441436	4638.840167	1108.629883	38.712337
-6617.441436	4638.840167	1107.490234	-69.521088
-6617.441436	4638.840167	1106.349609	55.812660
-6617.441436	4638.840167	1105.209961	-10.923447
-6617.441436	4638.840167	1104.069336	136.618027
-6617.441436	4638.840167	1102.928711	-8.899502
-6617.441436	4638.840167	1101.787109	-8.128285
-6617.441436	4638.840167	1100.646484	-19.070959
-6617.441436	4638.840167	1099.504883	136.426941
-6617.441436	4638.840167	1098.363281	135.034744
-6617.441436	4638.840167	1097.221680	10.309620
-6617.441436	4638.840167	1096.079102	57.638771
-6617.441436	4638.840167	1094.936523	-1.390424
-6617.441436	4638.840167	1093.793945	-1.247191
-6617.441436	4638.840167	1092.651367	97.280891
-6617.441436	4638.840167	1091.507813	36.748474
-6617.441436	4638.840167	1090.364258	60.512535
-6617.441436	4638.840167	1089.220703	15.323581
-6617.441436	4638.840167	1088.077148	113.133789
-6617.441436	4638.840167	1086.933594	153.415833
-6617.441436	4638.840167	1085.789063	118.288773
-6617.441436	4638.840167	1084.644531	133.129684
-6617.441436	4638.840167	1083.499023	166.885223
-6617.441436	4638.840167	1082.354492	35.939495
-6617.441436	4638.840167	1081.208984	128.238525
-6617.441436	4638.840167	1080.063477	66.422134
-6617.441436	4638.840167	1078.917969	69.752098
-6617.441436	4638.840167	1077.771484	14.173059
-6617.441436	4638.840167	1076.625977	50.189404
-6617.441436	4638.840167	1075.479492	70.226006
-6617.441436	4638.840167	1074.332031	76.275070
-6617.441436	4638.840167	1073.185547	155.730225
-6617.441436	4638.840167	1072.038086	46.817551
-6617.441436	4638.840167	1070.890625	121.098404
-6617.441436	4638.840167	1069.743164	99.597740
-6617.441436	4638.840167	1068.594727	59.665379
-6617.441436	4638.840167	1067.447266	6.078914
-6617.441436	4638.840167	1066.298828	77.528625
-6617.441436	4638.840167	1065.149414	95.523338
-6617.441436	4638.840167	1064.000977	156.681534
-6617.441436	4638.840167	1062.851563	26.048904
-6617.441436	4638.840167	1061.702148	153.424728
-6617.441436	4638.840167	1060.552734	128.559570
-6617.441436	4638.840167	1059.402344	41.477474
-6617.441436	4638.840167	1058.252930	121.500694
-6617.441436	4638.840167	1057.102539	131.625946
-6617.441436	4638.840167	1055.951172	125.322525
-6617.441436	4638.840167	1054.800781	38.569992
-6617.441436	4638.840167	1053.649414	-77.757561
-6617.441436	4638.840167	1052.498047	138.305771
-6617.441436	4638.840167	1051.346680	52.733246
-6617.441436	4638.840167	1050.194336	122.153282
-6617.441436	4638.840167	1049.042969	136.141800
-6617.441436	4638.840167	1047.890625	69.567375
-6617.441436	4638.840167	1046.738281	119.936531
-6617.441436	4638.840167	1045.584961	78.652084
-6617.441436	4638.840167	1044.431641	0.625846
-6617.441436	4638.840167	1043.278320	58.389660
-6617.441436	4638.840167	1042.125000	3.118435
-6617.441436	4638.840167	1040.971680	63.140892
-6617.441436	4638.840167	1039.817383	14.465245
-6617.441436	4638.840167	1038.663086	107.706520
-6617.441436	4638.840167	1037.508789	91.578690
-6617.441436	4638.840167	1036.353516	69.429298
-6617.441436	4638.840167	1035.198242	23.077505
-6617.441436	4638.840167	1034.042969	142.852539
-6617.441436	4638.840167	1032.887695	-4.257469
-6617.441436	4638.840167	1031.732422	-3.373718
-6617.441436	4638.840167	1030.576172	-33.827190
-6617.441436	4638.840167	1029.419922	21.373947
-6617.441436	4638.840167	1028.263672	102.804527
-6617.441436	4638.840167	1027.106445	-39.463867
-6617.441436	4638.840167	1025.949219	-6.154941
-6617.441436	4638.840167	1024.792969	85.922699
-6617.441436	4638.840167	1023.634766	83.250076
-6617.441436	4638.840167	1022.477539	41.721912
-6617.441436	4638.840167	1021.319336	-4.176790
-6617.441436	4638.840167	1020.161133	-20.885244
-6617.441436	4638.840167	1019.002930	94.073486
-6617.441436	4638.840167	1017.843750	42.964516
-6617.441436	4638.840167	1016.684570	53.710720
-6617.441436	4638.840167	1015.525391	-61.175308
-6617.441436	4638.840167	1014.366211	46.740887
-6617.441436	4638.840167	1013.207031	79.333717
-6617.441436	4638.840167	1012.046875	65.094315
-6617.441436	4638.840167	1010.886719	20.555967
-6617.441436	4638.840167	1009.726563	73.771553
-6617.441436	4638.840167	1008.565430	-2.832266
-6617.441436	4638.840167	1007.404297	55.947994
-6617.441436	4638.840167	1006.243164	-49.215405
-6617.441436	4638.840167	1005.082031	45.680855
-6617.441436	4638.840167	1003.920898	12.457966
-6617.441436	4638.840167	1002.758789	-13.321475
-6617.441436	4638.840167	1001.596680	84.661064
-6617.441436	4638.840167	1000.433594	47.562408
-6617.441436	4638.840167	999.271484	-149.671143
-6617.441436	4638.840167	998.108398	117.661621
-6617.441436	4638.840167	996.945313	68.787445
-6617.441436	4638.840167	995.782227	-79.419731
-6617.441436	4638.840167	994.618164	50.384617
-6617.441436	4638.840167	993.454102	-12.660594
-6617.441436	4638.840167	992.290039	75.383255
-6617.441436	4638.840167	991.125977	-3.489045
-6617.441436	4638.840167	989.960938	55.537941
-6617.441436	4638.840167	988.796875	61.328156
-6617.441436	4638.840167	987.630859	-35.038357
-6617.441436	4638.840167	986.465820	-18.553930
-6617.441436	4638.840167	985.300781	11.427440
-6617.441436	4638.840167	984.134766	64.479950
-6617.441436	4638.840167	982.968750	112.479889
-6617.441436	4638.840167	981.801758	46.682098
-6617.441436	4638.840167	980.635742	36.448933
-6617.441436	4638.840167	979.468750	-33.838749
-6617.441436	4638.840167	978.301758	58.031078
-6617.441436	4638.840167	977.133789	-125.112312
-6617.441436	4638.840167	975.966797	-35.982204
-6617.441436	4638.840167	974.798828	-61.103786
-6617.441436	4638.840167	973.630859	-2.196413
-6617.441436	4638.840167	972.461914	40.511559
-6617.441436	4638.840167	971.293945	-88.686035
-6617.441436	4638.840167	970.125000	-0.291235
-6617.441436	4638.840167	968.956055	-4.666439
-6617.441436	4638.840167	967.786133	-115.447006
-6617.441436	4638.840167	966.617188	105.413620
-6617.441436	4638.840167	965.447266	-32.222618
-6617.441436	4638.840167	964.276367	53.585083
-6617.441436	4638.840167	963.106445	-44.183331
-6617.441436	4638.840167	961.935547	26.362122
-6617.441436	4638.840167	960.764648	49.293640
-6617.441436	4638.840167	959.593750	23.742479
-6617.441436	4638.840167	958.422852	26.114796
-6617.441436	4638.840167	957.250977	164.637238
-6617.441436	4638.840167	956.079102	18.372515
-6617.441436	4638.840167	954.907227	46.613979
-6617.441436	4638.840167	953.734375	109.098038
-6617.441436	4638.840167	952.562500	60.431171
-6617.441436	4638.840167	951.389648	107.228867
-6617.441436	4638.840167	950.215820	-0.010207
-6617.441436	4638.840167	949.042969	8.928361
-6617.441436	4638.840167	947.869141	-27.970829
-6617.441436	4638.840167	946.695313	41.863735
-6617.441436	4638.840167	945.521484	-162.914978
-6617.441436	4638.840167	944.346680	-72.551292
-6617.441436	4638.840167	943.172852	-16.668917
-6617.441436	4638.840167	941.998047	41.504314
-6617.441436	4638.840167	940.822266	-107.583961
-6617.441436	4638.840167	939.647461	39.097855
-6617.441436	4638.840167	938.471680	-49.550167
-6617.441436	4638.840167	937.295898	92.560341
-6617.441436	4638.840167	936.119141	27.203089
-6617.441436	4638.840167	934.943359	-26.313953
-6617.441436	4638.840167	933.766602	-7.732582
-6617.441436	4638.840167	932.589844	-12.491515
-6617.441436	4638.840167	931.413086	-38.102589
-6617.441436	4638.840167	930.235352	66.499878
-6617.441436	4638.840167	929.057617	98.972374
-6617.441436	4638.840167	927.879883	91.896088
-6617.441436	4638.840167	926.702148	80.203514
-6617.441436	4638.840167	925.523438	-1.258919
-6617.441436	4638.840167	924.344727	84.656006
-6617.441436	4638.840167	923.166016	79.917892
-6617.441436	4638.840167	921.987305	14.757572
-6617.441436	4638.840167	920.807617	30.932596
-6617.441436	4638.840167	919.627930	31.660006
-6617.441436	4638.840167	919.497070	93.636566
-6617.441436	4638.840167	918.331055	165.514191
-6617.441436	4638.840167	917.165039	105.015259
-6617.441436	4638.840167	915.999023	58.468719
-6617.441436	4638.840167	914.833008	-50.724438
-6617.441436	4638.840167	913.666016	16.481899
-6617.441436	4638.840167	912.499023	-13.778736
-6617.441436	4638.840167	911.332031	-34.749165
-6617.441436	4638.840167	910.165039	76.474274
-6617.441436	4638.840167	908.997070	9.123477
-6617.441436	4638.840167	907.830078	2.070140
-6617.441436	4638.840167	906.661133	-9.614020
-6617.441436	4638.840167	905.493164	196.518753
-6617.441436	4638.840167	904.325195	64.332420
-6617.441436	4638.840167	903.156250	-14.526088
-6617.441436	4638.840167	901.987305	-12.301180
-6617.441436	4638.840167	900.818359	202.928360
-6617.441436	4638.840167	899.648438	98.629539
-6617.441436	4638.840167	898.478516	130.919510
-6617.441436	4638.840167	897.308594	68.329079
-6617.441436	4638.840167	896.138672	84.420372
-6617.441436	4638.840167	894.968750	190.709061
-6617.441436	4638.840167	893.797852	88.837677
-6617.441436	4638.840167	892.626953	-3.743389
-6617.441436	4638.840167	891.456055	-50.055557
-6617.441436	4638.840167	890.284180	-20.083258
-6617.441436	4638.840167	889.113281	-17.848894
-6617.441436	4638.840167	887.941406	28.278212
-6617.441436	4638.840167	886.768555	28.196316
-6617.441436	4638.840167	885.596680	2.715279
-6617.441436	4638.840167	884.423828	113.457726
-6617.441436	4638.840167	883.250977	23.344223
-6617.441436	4638.840167	882.078125	4.808424
-6617.441436	4638.840167	880.905273	-92.164032
-6617.441436	4638.840167	879.731445	99.251984
-6617.441436	4638.840167	878.557617	16.142067
-6617.441436	4638.840167	877.383789	-101.519615
-6617.441436	4638.840167	876.209961	34.458134
-6617.441436	4638.840167	875.035156	27.480032
-6617.441436	4638.840167	873.860352	-20.972586
-6617.441436	4638.840167	872.685547	96.480682
-6617.441436	4638.840167	871.510742	-25.673077
-6617.441436	4638.840167	870.334961	103.252831
-6617.441436	4638.840167	869.159180	105.488998
-6617.441436	4638.840167	867.983398	114.632614
-6617.441436	4638.840167	866.807617	199.726898
-6617.441436	4638.840167	865.630859	54.677792
-6617.441436	4638.840167	864.454102	-30.492880
-6617.441436	4638.840167	863.277344	10.883108
-6617.441436	4638.840167	862.100586	-16.746727
-6617.441436	4638.840167	860.922852	-97.244774
-6617.441436	4638.840167	859.745117	95.844635
-6617.441436	4638.840167	858.567383	47.537350
-6617.441436	4638.840167	857.389648	19.932251
-6617.441436	4638.840167	856.210938	33.693321
-6617.441436	4638.840167	855.032227	8.404614
-6617.441436	4638.840167	853.853516	-51.317673
-6617.441436	4638.840167	852.674805	-42.135666
-6617.441436	4638.840167	851.495117	33.613884
-6617.441436	4638.840167	850.315430	65.729858
-6617.441436	4638.840167	849.135742	31.294012
-6617.441436	4638.840167	847.956055	-12.302069
-6617.441436	4638.840167	846.775391	-39.822147
-6617.441436	4638.840167	845.595703	-104.019310
-6617.441436	4638.840167	844.415039	93.172462
-6617.441436	4638.840167	843.233398	12.934780
-6617.441436	4638.840167	842.052734	-26.018427
-6617.441436	4638.840167	840.871094	-30.584517
-6617.441436	4638.840167	839.689453	-19.111872
-6617.441436	4638.840167	838.506836	-60.317379
-6617.441436	4638.840167	837.325195	120.605408
-6617.441436	4638.840167	836.142578	-12.181559
-6617.441436	4638.840167	834.959961	-57.935596
-6617.441436	4638.840167	833.777344	-23.575716
-6617.441436	4638.840167	832.593750	97.712929
-6617.441436	4638.840167	831.410156	65.694717
-6617.441436	4638.840167	830.226563	13.108116
-6617.441436	4638.840167	829.042969	68.010429
-6617.441436	4638.840167	827.858398	111.461601
-6617.441436	4638.840167	826.673828	20.048525
-6617.441436	4638.840167	825.489258	-27.909304
-6617.441436	4638.840167	824.304688	61.230858
-6617.441436	4638.840167	823.120117	36.128117
-6617.441436	4638.840167	821.934570	-20.934202
-6617.441436	4638.840167	820.749023	-41.440769
-6617.441436	4638.840167	819.562500	-29.979345
-6617.441436	4638.840167	818.376953	-23.087074
-6617.441436	4638.840167	817.190430	-70.959175
-6617.441436	4638.840167	816.003906	-66.340836
-6617.441436	4638.840167	814.817383	-4.702850
-6617.441436	4638.840167	813.629883	-4.659368
-6617.441436	4638.840167	812.442383	-45.654064
-6617.441436	4638.840167	811.254883	9.104460
-6617.441436	4638.840167	810.067383	6.866094
-6617.441436	4638.840167	808.878906	-59.168373
-6617.441436	4638.840167	807.690430	-4.440434
-6617.441436	4638.840167	806.501953	13.823480
-6617.441436	4638.840167	805.313477	198.305862
-6617.441436	4638.840167	804.124023	13.902083
-6617.441436	4638.840167	802.934570	-61.171898
-6617.441436	4638.840167	801.745117	4.875545
-6617.441436	4638.840167	800.555664	48.142918
-6617.441436	4638.840167	799.365234	45.897636
-6617.441436	4638.840167	798.175781	98.233139
-6617.441436	4638.840167	796.985352	77.785210
-6617.441436	4638.840167	795.793945	55.071781
-6617.441436	4638.840167	794.603516	75.549324
-6617.441436	4638.840167	793.412109	164.188583
-6617.441436	4638.840167	792.220703	21.055103
-6617.441436	4638.840167	791.028320	121.022736
-6617.441436	4638.840167	789.836914	32.456165
-6617.441436	4638.840167	788.644531	23.392019
-6617.441436	4638.840167	787.452148	23.408800
-6617.441436	4638.840167	786.258789	7.537067
-6617.441436	4638.840167	785.066406	59.740391
-6617.441436	4638.840167	783.873047	-37.808147
-6617.441436	4638.840167	782.679688	52.936016
-6617.441436	4638.840167	781.485352	93.750984
-6617.441436	4638.840167	780.291992	-24.158442
-6617.441436	4638.840167	779.097656	77.850014
-6617.441436	4638.840167	777.903320	98.227180
-6617.441436	4638.840167	776.708008	7.569501
-6617.441436	4638.840167	775.512695	27.945230
-6617.441436	4638.840167	774.318359	0.746128
-6617.441436	4638.840167	773.122070	-6.065578
-6617.441436	4638.840167	771.926758	118.426201
-6617.441436	4638.840167	770.730469	0.675224
-6617.441436	4638.840167	769.534180	-58.194828
-6617.441436	4638.840167	768.337891	-35.596233
-6617.441436	4638.840167	767.141602	5.083861
-6617.441436	4638.840167	765.944336	48.003372
-6617.441436	4638.840167	764.747070	-80.942276
-6617.441436	4638.840167	763.549805	61.432289
-6617.441436	4638.840167	762.351563	-4.190382
-6617.441436	4638.840167	761.154297	18.334307
-6617.441436	4638.840167	759.956055	-20.154490
-6617.441436	4638.840167	758.757813	81.406891
-6617.441436	4638.840167	757.558594	33.874805
-6617.441436	4638.840167	756.359375	40.542412
-6617.441436	4638.840167	755.160156	94.603378
-6617.441436	4638.840167	753.960938	31.278458
-6617.441436	4638.840167	752.761719	157.507645
-6617.441436	4638.840167	751.561523	17.480522
-6617.441436	4638.840167	750.361328	46.660923
-6617.441436	4638.840167	749.160156	-52.711300
-6617.441436	4638.840167	747.959961	-3.254608
-6617.441436	4638.840167	746.758789	100.269669
-6617.441436	4638.840167	745.557617	-66.684120
-6617.441436	4638.840167	744.356445	77.347702
-6617.441436	4638.840167	743.154297	164.995575
-6617.441436	4638.840167	741.952148	-17.659681
-6617.441436	4638.840167	740.750000	-29.121176
-6617.441436	4638.840167	739.547852	166.522522
-6617.441436	4638.840167	738.344727	-45.307186
-6617.441436	4638.840167	737.142578	-2.779635
-6617.441436	4638.840167	735.939453	35.220413
-6617.441436	4638.840167	734.735352	19.210808
-6617.441436	4638.840167	733.532227	135.878448
-6617.441436	4638.840167	732.328125	176.042130
-6617.441436	4638.840167	731.124023	92.542549
-6617.441436	4638.840167	729.918945	51.768082
-6617.441436	4638.840167	728.714844	121.100296
-6617.441436	4638.840167	727.509766	230.828873
-6617.441436	4638.840167	726.303711	75.468491
-6617.441436	4638.840167	725.098633	-52.892952
-6617.441436	4638.840167	723.892578	-62.222897
-6617.441436	4638.840167	722.686523	13.733948
-6617.441436	4638.840167	721.480469	64.960548
-6617.441436	4638.840167	720.274414	60.060734
-6617.441436	4638.840167	719.067383	-70.469757
-6617.441436	4638.840167	717.860352	162.364883
-6617.441436	4638.840167	716.653320	-71.303909
-6617.441436	4638.840167	715.445313	11.205841
-6617.441436	4638.840167	714.238281	-60.985279
-6617.441436	4638.840167	713.030273	-43.525570
-6617.441436	4638.840167	711.821289	45.605274
-6617.441436	4638.840167	710.613281	36.127266
-6617.441436	4638.840167	709.404297	-11.431677
-6617.441436	4638.840167	708.195313	-32.117878
-6617.441436	4638.840167	706.986328	30.014547
-6617.441436	4638.840167	705.776367	-71.271431
-6617.441436	4638.840167	704.566406	-67.364380
-6617.441436	4638.840167	703.356445	17.061470
-6617.441436	4638.840167	702.146484	-8.159070
-6617.441436	4638.840167	700.935547	-55.746719
-6617.441436	4638.840167	699.724609	-29.552137
-6617.441436	4638.840167	698.513672	5.555877
-6617.441436	4638.840167	697.302734	-6.297093
-6617.441436	4638.840167	696.090820	24.290024
-6617.441436	4638.840167	694.878906	30.275465
-6617.441436	4638.840167	693.666992	27.308022
-6617.441436	4638.840167	692.455078	13.160508
-6617.441436	4638.840167	691.242188	10.163881
-6617.441436	4638.840167	690.029297	9.383137
-6617.441436	4638.840167	688.816406	46.520298
-6617.441436	4638.840167	687.602539	27.849159
-6617.441436	4638.840167	686.389648	-6.445335
-6617.441436	4638.840167	685.175781	-27.363087
-6617.441436	4638.840167	683.960938	43.123341
-6617.441436	4638.840167	682.747070	15.480474
-6617.441436	4638.840167	681.532227	39.090176
-6617.441436	4638.840167	680.317383	109.463631
-6617.441436	4638.840167	679.102539	23.848537
-6617.441436	4638.840167	677.886719	-10.522402
-6617.441436	4638.840167	676.670898	104.296860
-6617.441436	4638.840167	675.455078	154.485916
-6617.441436	4638.840167	674.239258	71.084259
-6617.441436	4638.840167	673.022461	-50.132504
-6617.441436	4638.840167	671.805664	17.799574
-6617.441436	4638.840167	670.588867	10.053279
-6617.441436	4638.840167	669.372070	60.113903
-6617.441436	4638.840167	668.154297	70.111267
-6617.441436	4638.840167	666.936523	-19.951530
-6617.441436	4638.840167	665.718750	-176.672195
-6617.441436	4638.840167	664.500977	59.963615
-6617.441436	4638.840167	663.282227	134.301529
-6617.441436	4638.840167	662.063477	68.655983
-6617.441436	4638.840167	660.844727	105.169769
-6617.441436	4638.840167	659.625000	55.059811
-6617.441436	4638.840167	658.405273	31.588360
-6617.441436	4638.840167	657.185547	36.957802
-6617.441436	4638.840167	655.965820	159.902008
-6617.441436	4638.840167	654.745117	109.743584
-6617.441436	4638.840167	653.525391	110.598061
-6617.441436	4638.840167	652.303711	-17.177908
-6617.441436	4638.840167	651.083008	-0.818384
-6617.441436	4638.840167	649.861328	62.059792
-6617.441436	4638.840167	648.640625	16.308153
-6617.441436	4638.840167	647.417969	-38.306900
-6617.441436	4638.840167	646.196289	46.630676
-6617.441436	4638.840167	644.973633	-1.363244
-6617.441436	4638.840167	643.750977	19.281225
-6617.441436	4638.840167	642.528320	-95.135811
-6617.441436	4638.840167	641.305664	-134.275421
-6617.441436	4638.840167	640.082031	-42.868359
-6617.441436	4638.840167	638.858398	37.419514
-6617.441436	4638.840167	637.634766	-10.629500
-6617.441436	4638.840167	636.410156	-5.606524
-6617.441436	4638.840167	635.185547	3.816781
-6617.441436	4638.840167	633.960938	50.793346
-6617.441436	4638.840167	632.736328	-50.332973
-6617.441436	4638.840167	631.510742	65.089096
-6617.441436	4638.840167	630.285156	96.502480
-6617.441436	4638.840167	629.059570	101.381676
-6617.441436	4638.840167	627.833984	95.199951
-6617.441436	4638.840167	626.607422	179.511871
-6617.441436	4638.840167	625.380859	199.763870
-6617.441436	4638.840167	624.154297	308.254181
-6617.441436	4638.840167	622.927734	299.753510
-6617.441436	4638.840167	621.700195	401.522888
-6617.441436	4638.840167	620.472656	445.894836
-6617.441436	4638.840167	619.245117	260.935974
-6617.441436	4638.840167	618.016602	320.712952
-6617.441436	4638.840167	616.788086	142.434601
-6617.441436	4638.840167	615.559570	233.024200
-6617.441436	4638.840167	614.331055	131.907501
-6617.441436	4638.840167	613.101563	125.519859
-6617.441436	4638.840167	611.872070	-24.008476
-6617.441436	4638.840167	610.642578	-43.601845
-6617.441436	4638.840167	609.413086	97.471436
-6617.441436	4638.840167	608.182617	60.223610
-6617.441436	4638.840167	606.952148	-29.826332
-6617.441436	4638.840167	605.721680	3.325530
-6617.441436	4638.840167	604.491211	-62.513653
-6617.441436	4638.840167	603.259766	16.772341
-6617.441436	4638.840167	602.028320	3.685005
-6617.441436	4638.840167	600.796875	34.543961
-6617.441436	4638.840167	599.564453	65.374840
-6617.441436	4638.840167	598.332031	41.258545
-6617.441436	4638.840167	597.099609	-18.002134
-6617.441436	4638.840167	595.867188	133.553070
-6617.441436	4638.840167	594.633789	-50.867340
-6617.441436	4638.840167	593.400391	-31.092331
-6617.441436	4638.840167	592.166992	34.746109
-6617.441436	4638.840167	590.933594	32.530403
-6617.441436	4638.840167	589.699219	91.722198
-6617.441436	4638.840167	588.464844	39.030941
-6617.441436	4638.840167	587.230469	54.322220
-6617.441436	4638.840167	585.995117	-4.937433
-6617.441436	4638.840167	584.760742	76.086128
-6617.441436	4638.840167	583.525391	21.209885
-6617.441436	4638.840167	582.289063	16.733513
-6617.441436	4638.840167	581.053711	-29.364002
-6617.441436	4638.840167	579.817383	27.469156
-6617.441436	4638.840167	578.581055	101.784584
-6617.441436	4638.840167	577.343750	31.594213
-6617.441436	4638.840167	576.107422	195.586334
-6617.441436	4638.840167	574.870117	142.895004
-6617.441436	4638.840167	573.631836	201.779449
-6617.441436	4638.840167	572.394531	251.885239
-6617.441436	4638.840167	571.156250	135.786880
-6617.441436	4638.840167	569.917969	225.222809
-6617.441436	4638.840167	568.679688	235.934189
-6617.441436	4638.840167	567.440430	80.565300
-6617.441436	4638.840167	566.202148	263.883118
-6617.441436	4638.840167	564.961914	143.513443
-6617.441436	4638.840167	563.722656	171.687347
-6617.441436	4638.840167	562.482422	108.147804
-6617.441436	4638.840167	561.243164	300.022430
-6617.441436	4638.840167	560.001953	291.036316
-6617.441436	4638.840167	558.761719	290.781250
-6617.441436	4638.840167	557.520508	290.524841
-6617.441436	4638.840167	556.279297	231.382965
-6617.441436	4638.840167	555.038086	324.899628
-6617.441436	4638.840167	553.795898	259.235687
-6617.441436	4638.840167	552.554688	106.420692
-6617.441436	4638.840167	551.311523	106.205414
-6617.441436	4638.840167	550.069336	278.103210
-6617.441436	4638.840167	548.826172	301.816315
-6617.441436	4638.840167	547.583984	175.263855
-6617.441436	4638.840167	546.339844	251.247437
-6617.441436	4638.840167	545.096680	140.004044
-6617.441436	4638.840167	543.852539	152.859436
-6617.441436	4638.840167	542.608398	267.977417
-6617.441436	4638.840167	541.364258	252.531815
-6617.441436	4638.840167	540.119141	287.120087
-6617.441436	4638.840167	538.875000	165.143524
-6617.441436	4638.840167	537.628906	301.923859
-6617.441436	4638.840167	536.383789	227.826843
-6617.441436	4638.840167	535.137695	149.422958
-6617.441436	4638.840167	533.892578	229.658295
-6617.441436	4638.840167	532.645508	270.768768
-6617.441436	4638.840167	531.399414	127.285553
-6617.441436	4638.840167	530.152344	157.564819
-6617.441436	4638.840167	528.905273	92.331291
-6617.441436	4638.840167	527.658203	192.073715
-6617.441436	4638.840167	526.410156	209.333496
-6617.441436	4638.840167	525.163086	198.398376
-6617.441436	4638.840167	523.914063	154.945801
-6617.441436	4638.840167	522.666016	9.613440
-6617.441436	4638.840167	521.416992	-14.242210
-6617.441436	4638.840167	520.167969	89.804398
-6617.441436	4638.840167	518.918945	-1.205777
-6617.441436	4638.840167	517.669922	-79.162956
-6617.441436	4638.840167	516.419922	-59.601158
-6617.441436	4638.840167	515.169922	9.775448
-6617.441436	4638.840167	513.919922	81.303917
-6617.441436	4638.840167	512.668945	68.396034
-6617.441436	4638.840167	511.417969	81.480377
-6617.441436	4638.840167	510.166992	53.466469
-6617.441436	4638.840167	508.916016	-4.803555
-6617.441436	4638.840167	507.664063	84.036697
-6617.441436	4638.840167	506.412109	105.825600
-6617.441436	4638.840167	505.160156	153.565887
-6617.441436	4638.840167	503.907227	-38.609196
-6617.441436	4638.840167	502.655273	-8.108118
-6617.441436	4638.840167	501.402344	89.372169
-6617.441436	4638.840167	500.148438	-106.927818
-6617.441436	4638.840167	498.895508	-0.790721
-6617.441436	4638.840167	497.641602	31.912243
-6617.441436	4638.840167	496.387695	-51.942490
-6617.441436	4638.840167	495.132813	8.852773
-6617.441436	4638.840167	493.878906	-55.500927
-6617.441436	4638.840167	492.624023	31.196522
-6617.441436	4638.840167	491.368164	18.666931
-6617.441436	4638.840167	490.113281	51.446144
-6617.441436	4638.840167	488.857422	6.622472
-6617.441436	4638.840167	487.601563	-12.296806
-6617.441436	4638.840167	486.344727	-72.130424
-6617.441436	4638.840167	485.088867	-93.137215
-6617.441436	4638.840167	483.832031	-86.113350
-6617.441436	4638.840167	482.575195	80.285652
-6617.441436	4638.840167	481.317383	1.189026
-6617.441436	4638.840167	480.059570	105.114014
-6617.441436	4638.840167	478.801758	38.999878
-6617.441436	4638.840167	477.543945	54.695999
-6617.441436	4638.840167	476.285156	-142.560074
-6617.441436	4638.840167	475.027344	-19.257423
-6617.441436	4638.840167	473.767578	11.550488
-6617.441436	4638.840167	472.508789	115.456451
-6617.441436	4638.840167	471.249023	45.242397
-6617.441436	4638.840167	469.989258	-55.007217
-6617.441436	4638.840167	468.729492	-37.035072
-6617.441436	4638.840167	467.469727	-8.314116
-6617.441436	4638.840167	466.208984	89.128838
-6617.441436	4638.840167	464.948242	14.786963
-6617.441436	4638.840167	463.686523	135.825256
-6617.441436	4638.840167	462.425781	153.815720
-6617.441436	4638.840167	461.164063	43.076485
-6617.441436	4638.840167	459.901367	33.218597
-6617.441436	4638.840167	458.639648	194.950775
-6617.441436	4638.840167	457.376953	-31.476530
-6617.441436	4638.840167	456.114258	-6.978321
-6617.441436	4638.840167	454.851563	81.816689
-6617.441436	4638.840167	453.587891	-58.699543
-6617.441436	4638.840167	452.324219	19.371521
-6617.441436	4638.840167	451.060547	33.158058
-6617.441436	4638.840167	449.796875	4.114606
-6617.441436	4638.840167	448.532227	54.302330
-6617.441436	4638.840167	447.267578	-26.100245
-6617.441436	4638.840167	446.002930	0.534080
-6617.441436	4638.840167	444.737305	-17.775732
-6617.441436	4638.840167	443.471680	6.701859
-6617.441436	4638.840167	442.206055	-5.192544
-6617.441436	4638.840167	440.940430	62.024654
-6617.441436	4638.840167	439.673828	92.863319
-6617.441436	4638.840167	438.407227	46.736828
-6617.441436	4638.840167	437.140625	-57.074829
-6617.441436	4638.840167	435.873047	42.095669
-6617.441436	4638.840167	434.605469	49.364346
-6617.441436	4638.840167	433.337891	16.038780
-6617.441436	4638.840167	432.070313	-89.881409
-6617.441436	4638.840167	430.801758	47.551693
-6617.441436	4638.840167	429.533203	24.847858
-6617.441436	4638.840167	428.264648	-2.141758
-6617.441436	4638.840167	426.996094	51.907051
-6617.441436	4638.840167	425.726563	-30.590992
-6617.441436	4638.840167	424.457031	8.443645
-6617.441436	4638.840167	423.186523	-76.218132
-6617.441436	4638.840167	421.916992	50.107597
-6617.441436	4638.840167	420.646484	12.261540
-6617.441436	4638.840167	419.375977	-40.530357
-6617.441436	4638.840167	418.104492	51.477081
-6617.441436	4638.840167	416.833008	92.282593
-6617.441436	4638.840167	415.561523	20.176226
-6617.441436	4638.840167	414.290039	94.901749
-6617.441436	4638.840167	413.017578	31.204409
-6617.441436	4638.840167	411.746094	95.116508
-6617.441436	4638.840167	410.472656	1.517876
-6617.441436	4638.840167	409.200195	22.718004
-6617.441436	4638.840167	407.926758	-2.953593
-6617.441436	4638.840167	406.653320	-20.201180
-6617.441436	4638.840167	405.379883	-35.410786
-6617.441436	4638.840167	404.105469	2.404849
-6617.441436	4638.840167	402.831055	35.850567
-6617.441436	4638.840167	401.556641	171.117294
-6617.441436	4638.840167	400.282227	30.167789
-6617.441436	4638.840167	399.006836	137.540863
-6617.441436	4638.840167	397.731445	-5.711654
-6617.441436	4638.840167	396.456055	-70.519325
-6617.441436	4638.840167	395.179688	74.594368
-6617.441436	4638.840167	393.903320	-51.999146
-6617.441436	4638.840167	392.626953	-28.123945
-6617.441436	4638.840167	391.350586	48.587841
-6617.441436	4638.840167	390.073242	-2.082524
-6617.441436	4638.840167	388.795898	42.463940
-6617.441436	4638.840167	387.518555	105.882423
-6617.441436	4638.840167	386.240234	16.565285
-6617.441436	4638.840167	384.961914	-47.491203
-6617.441436	4638.840167	383.683594	19.558981
-6617.441436	4638.840167	382.405273	-70.282562
-6617.441436	4638.840167	381.125977	51.343891
-6617.441436	4638.840167	379.846680	124.024239
-6617.441436	4638.840167	378.567383	135.088577
-6617.441436	4638.840167	377.287109	76.103958
-6617.441436	4638.840167	376.006836	65.530670
-6617.441436	4638.840167	374.726563	92.757729
-6617.441436	4638.840167	373.446289	100.679802
-6617.441436	4638.840167	372.165039	123.108345
-6617.441436	4638.840167	370.883789	5.792570
-6617.441436	4638.840167	369.602539	86.790024
-6617.441436	4638.840167	368.320313	-7.848989
-6617.441436	4638.840167	367.039063	-16.192785
-6617.441436	4638.840167	365.755859	57.452869
-6617.441436	4638.840167	364.473633	90.631149
-6617.441436	4638.840167	363.190430	17.932878
-6617.441436	4638.840167	361.907227	27.175522
-6617.441436	4638.840167	360.624023	50.801575
-6617.441436	4638.840167	359.340820	12.877311
-6617.441436	4638.840167	358.056641	54.672894
-6617.441436	4638.840167	356.772461	100.251404
-6617.441436	4638.840167	355.487305	52.654255
-6617.441436	4638.840167	354.202148	65.735069
-6617.441436	4638.840167	352.916992	-5.899333
-6617.441436	4638.840167	351.631836	122.091476
-6617.441436	4638.840167	350.346680	123.217056
-6617.441436	4638.840167	349.060547	-80.349182
-6617.441436	4638.840167	347.774414	58.701138
-6617.441436	4638.840167	346.487305	58.283161
-6617.441436	4638.840167	345.200195	-20.511433
-6617.441436	4638.840167	343.913086	57.905865
-6617.441436	4638.840167	342.625977	-45.117966
-6617.441436	4638.840167	341.338867	-14.144969
-6617.441436	4638.840167	340.050781	-34.249699
-6617.441436	4638.840167	338.762695	8.068105
-6617.441436	4638.840167	337.473633	-97.350807
-6617.441436	4638.840167	336.184570	44.461765
-6617.441436	4638.840167	334.895508	-32.863201
-6617.441436	4638.840167	333.606445	-73.063271
-6617.441436	4638.840167	332.317383	39.265709
-6617.441436	4638.840167	331.027344	-128.319794
-6617.441436	4638.840167	329.736328	41.188812
-6617.441436	4638.840167	328.446289	18.974705
-6617.441436	4638.840167	327.155273	16.923704
-6617.441436	4638.840167	325.864258	-38.366493
-6617.441436	4638.840167	324.573242	-14.817408
-6617.441436	4638.840167	323.281250	-4.738606
-6617.441436	4638.840167	321.989258	-52.128548
-6617.441436	4638.840167	320.697266	100.702248
-6617.441436	4638.840167	319.405273	-76.298378
-6617.441436	4638.840167	318.112305	-40.615459
-6617.441436	4638.840167	316.819336	-12.212902
-6617.441436	4638.840167	315.526367	-81.113991
-6617.441436	4638.840167	314.232422	54.032402
-6617.441436	4638.840167	312.938477	171.321213
-6617.441436	4638.840167	311.644531	-38.835312
-6617.441436	4638.840167	310.349609	-30.461054
-6617.441436	4638.840167	309.054688	-10.688772
-6617.441436	4638.840167	307.759766	-2.548153
-6617.441436	4638.840167	306.464844	-6.059133
-6617.441436	4638.840167	305.168945	58.122780
-6617.441436	4638.840167	303.873047	189.953049
-6617.441436	4638.840167	302.577148	96.966278
-6617.441436	4638.840167	301.281250	125.895737
-6617.441436	4638.840167	299.984375	178.477753
