#X		#Y		#Wave		#Intensity
-7411.914043	4211.477833	1999.946289	-134.245132
-7411.914043	4211.477833	1998.981445	-0.086674
-7411.914043	4211.477833	1998.017578	95.093758
-7411.914043	4211.477833	1997.052734	-127.065849
-7411.914043	4211.477833	1996.088867	14.956196
-7411.914043	4211.477833	1995.124023	-4.193868
-7411.914043	4211.477833	1994.159180	-20.964884
-7411.914043	4211.477833	1993.193359	-97.258034
-7411.914043	4211.477833	1992.228516	-57.264782
-7411.914043	4211.477833	1991.262695	121.240166
-7411.914043	4211.477833	1990.296875	-9.779647
-7411.914043	4211.477833	1989.331055	19.994450
-7411.914043	4211.477833	1988.365234	34.822498
-7411.914043	4211.477833	1987.398438	138.606216
-7411.914043	4211.477833	1986.432617	46.888451
-7411.914043	4211.477833	1985.465820	31.774965
-7411.914043	4211.477833	1984.499023	4.222808
-7411.914043	4211.477833	1983.532227	8.731082
-7411.914043	4211.477833	1982.565430	32.928741
-7411.914043	4211.477833	1981.597656	61.984352
-7411.914043	4211.477833	1980.629883	-32.560867
-7411.914043	4211.477833	1979.662109	-80.217720
-7411.914043	4211.477833	1978.694336	54.806671
-7411.914043	4211.477833	1977.726563	11.946733
-7411.914043	4211.477833	1976.758789	38.152496
-7411.914043	4211.477833	1975.790039	155.601654
-7411.914043	4211.477833	1974.821289	-87.321571
-7411.914043	4211.477833	1973.852539	54.650135
-7411.914043	4211.477833	1972.883789	63.308456
-7411.914043	4211.477833	1971.915039	217.407944
-7411.914043	4211.477833	1970.945313	31.124826
-7411.914043	4211.477833	1969.975586	64.262444
-7411.914043	4211.477833	1969.005859	38.175835
-7411.914043	4211.477833	1968.036133	125.405548
-7411.914043	4211.477833	1967.066406	3.119043
-7411.914043	4211.477833	1966.096680	-104.392204
-7411.914043	4211.477833	1965.125977	-7.484712
-7411.914043	4211.477833	1964.155273	155.826660
-7411.914043	4211.477833	1963.184570	13.733682
-7411.914043	4211.477833	1962.213867	-61.889309
-7411.914043	4211.477833	1961.242188	96.282524
-7411.914043	4211.477833	1960.271484	55.032948
-7411.914043	4211.477833	1959.299805	3.918458
-7411.914043	4211.477833	1958.328125	156.942856
-7411.914043	4211.477833	1957.356445	17.210812
-7411.914043	4211.477833	1956.384766	-73.331223
-7411.914043	4211.477833	1955.412109	91.798386
-7411.914043	4211.477833	1954.439453	28.240229
-7411.914043	4211.477833	1953.467773	31.020742
-7411.914043	4211.477833	1952.495117	-10.459602
-7411.914043	4211.477833	1951.521484	65.958290
-7411.914043	4211.477833	1950.548828	2.314571
-7411.914043	4211.477833	1949.575195	46.713520
-7411.914043	4211.477833	1948.601563	-9.598745
-7411.914043	4211.477833	1947.627930	130.458740
-7411.914043	4211.477833	1946.654297	-80.528168
-7411.914043	4211.477833	1945.680664	37.347614
-7411.914043	4211.477833	1944.706055	-43.569618
-7411.914043	4211.477833	1943.732422	10.425571
-7411.914043	4211.477833	1942.757813	76.637085
-7411.914043	4211.477833	1941.783203	64.334518
-7411.914043	4211.477833	1940.807617	-65.660500
-7411.914043	4211.477833	1939.833008	69.084160
-7411.914043	4211.477833	1938.857422	-82.967743
-7411.914043	4211.477833	1937.881836	73.737572
-7411.914043	4211.477833	1936.906250	90.727135
-7411.914043	4211.477833	1935.930664	-124.991608
-7411.914043	4211.477833	1934.955078	122.174736
-7411.914043	4211.477833	1933.978516	104.807243
-7411.914043	4211.477833	1933.001953	-32.520737
-7411.914043	4211.477833	1932.025391	30.873947
-7411.914043	4211.477833	1931.048828	-177.390991
-7411.914043	4211.477833	1930.072266	52.333393
-7411.914043	4211.477833	1929.094727	27.563551
-7411.914043	4211.477833	1928.118164	115.282646
-7411.914043	4211.477833	1927.140625	100.256447
-7411.914043	4211.477833	1926.163086	75.440109
-7411.914043	4211.477833	1925.184570	13.954448
-7411.914043	4211.477833	1924.207031	-108.620628
-7411.914043	4211.477833	1923.228516	10.726524
-7411.914043	4211.477833	1922.250000	34.742096
-7411.914043	4211.477833	1921.271484	122.236977
-7411.914043	4211.477833	1920.292969	-58.933041
-7411.914043	4211.477833	1919.314453	-66.702217
-7411.914043	4211.477833	1918.334961	-86.685310
-7411.914043	4211.477833	1917.355469	78.810127
-7411.914043	4211.477833	1916.375977	124.664261
-7411.914043	4211.477833	1915.396484	89.976936
-7411.914043	4211.477833	1914.416992	45.533543
-7411.914043	4211.477833	1913.436523	-18.415588
-7411.914043	4211.477833	1912.457031	7.863894
-7411.914043	4211.477833	1911.476563	-2.445976
-7411.914043	4211.477833	1910.496094	133.481049
-7411.914043	4211.477833	1909.515625	135.312103
-7411.914043	4211.477833	1908.534180	142.005417
-7411.914043	4211.477833	1907.552734	-41.328617
-7411.914043	4211.477833	1906.572266	-80.906677
-7411.914043	4211.477833	1905.590820	64.590736
-7411.914043	4211.477833	1904.608398	-50.488659
-7411.914043	4211.477833	1903.626953	94.926498
-7411.914043	4211.477833	1902.644531	-5.535794
-7411.914043	4211.477833	1901.663086	100.860886
-7411.914043	4211.477833	1900.680664	-84.737961
-7411.914043	4211.477833	1899.698242	-29.468994
-7411.914043	4211.477833	1898.714844	-134.740448
-7411.914043	4211.477833	1897.732422	-13.854924
-7411.914043	4211.477833	1896.749023	-72.921928
-7411.914043	4211.477833	1895.765625	64.899414
-7411.914043	4211.477833	1894.782227	49.560261
-7411.914043	4211.477833	1893.798828	-48.394482
-7411.914043	4211.477833	1892.814453	-141.464981
-7411.914043	4211.477833	1891.831055	-202.938141
-7411.914043	4211.477833	1890.846680	150.843918
-7411.914043	4211.477833	1889.862305	55.326569
-7411.914043	4211.477833	1888.877930	35.083973
-7411.914043	4211.477833	1887.892578	12.410780
-7411.914043	4211.477833	1886.908203	9.145156
-7411.914043	4211.477833	1885.922852	64.095215
-7411.914043	4211.477833	1884.937500	-33.800488
-7411.914043	4211.477833	1883.952148	55.065361
-7411.914043	4211.477833	1882.965820	-16.143541
-7411.914043	4211.477833	1881.980469	92.054604
-7411.914043	4211.477833	1880.994141	-0.973653
-7411.914043	4211.477833	1880.007813	41.727844
-7411.914043	4211.477833	1879.021484	-22.207260
-7411.914043	4211.477833	1878.035156	3.499197
-7411.914043	4211.477833	1877.047852	193.876038
-7411.914043	4211.477833	1876.061523	127.488159
-7411.914043	4211.477833	1875.074219	-21.204309
-7411.914043	4211.477833	1874.086914	93.992126
-7411.914043	4211.477833	1873.098633	-98.227791
-7411.914043	4211.477833	1872.111328	-0.026584
-7411.914043	4211.477833	1871.123047	-25.256788
-7411.914043	4211.477833	1870.135742	-96.451012
-7411.914043	4211.477833	1869.147461	-208.743088
-7411.914043	4211.477833	1868.158203	-100.979965
-7411.914043	4211.477833	1867.169922	-19.865065
-7411.914043	4211.477833	1866.180664	44.285042
-7411.914043	4211.477833	1865.192383	-92.175407
-7411.914043	4211.477833	1864.203125	218.372498
-7411.914043	4211.477833	1863.213867	-111.351257
-7411.914043	4211.477833	1862.223633	-131.825974
-7411.914043	4211.477833	1861.234375	-41.232464
-7411.914043	4211.477833	1860.244141	39.652538
-7411.914043	4211.477833	1859.253906	-0.199968
-7411.914043	4211.477833	1858.263672	-242.776566
-7411.914043	4211.477833	1857.273438	-29.241566
-7411.914043	4211.477833	1856.282227	17.737144
-7411.914043	4211.477833	1855.291992	4.379316
-7411.914043	4211.477833	1854.300781	-47.576370
-7411.914043	4211.477833	1853.309570	98.178070
-7411.914043	4211.477833	1852.317383	-18.900318
-7411.914043	4211.477833	1851.326172	-37.136578
-7411.914043	4211.477833	1850.333984	101.246872
-7411.914043	4211.477833	1849.342773	-71.238007
-7411.914043	4211.477833	1848.350586	134.506592
-7411.914043	4211.477833	1847.357422	48.741085
-7411.914043	4211.477833	1846.365234	102.646477
-7411.914043	4211.477833	1845.372070	84.286293
-7411.914043	4211.477833	1844.379883	70.725395
-7411.914043	4211.477833	1843.386719	117.312386
-7411.914043	4211.477833	1842.393555	101.300751
-7411.914043	4211.477833	1841.399414	32.348461
-7411.914043	4211.477833	1840.406250	110.117241
-7411.914043	4211.477833	1839.412109	127.715263
-7411.914043	4211.477833	1838.417969	-42.251343
-7411.914043	4211.477833	1837.423828	35.417332
-7411.914043	4211.477833	1836.429688	45.739559
-7411.914043	4211.477833	1835.434570	10.377078
-7411.914043	4211.477833	1834.440430	-41.813789
-7411.914043	4211.477833	1833.445313	6.875450
-7411.914043	4211.477833	1832.450195	98.750275
-7411.914043	4211.477833	1831.454102	65.706703
-7411.914043	4211.477833	1830.458984	296.724304
-7411.914043	4211.477833	1829.462891	13.981073
-7411.914043	4211.477833	1828.466797	36.089268
-7411.914043	4211.477833	1827.470703	62.960701
-7411.914043	4211.477833	1826.474609	-51.736931
-7411.914043	4211.477833	1825.478516	49.438480
-7411.914043	4211.477833	1824.481445	88.201134
-7411.914043	4211.477833	1823.484375	208.435852
-7411.914043	4211.477833	1822.487305	91.289803
-7411.914043	4211.477833	1821.490234	127.542999
-7411.914043	4211.477833	1820.493164	12.794793
-7411.914043	4211.477833	1819.495117	-27.671412
-7411.914043	4211.477833	1818.498047	58.797443
-7411.914043	4211.477833	1817.500000	6.304554
-7411.914043	4211.477833	1816.500977	169.292938
-7411.914043	4211.477833	1815.502930	1.832824
-7411.914043	4211.477833	1814.504883	73.750542
-7411.914043	4211.477833	1813.505859	47.497311
-7411.914043	4211.477833	1812.506836	52.326431
-7411.914043	4211.477833	1811.507813	-206.007462
-7411.914043	4211.477833	1810.508789	191.032486
-7411.914043	4211.477833	1809.508789	217.257767
-7411.914043	4211.477833	1808.508789	54.574120
-7411.914043	4211.477833	1807.508789	68.799675
-7411.914043	4211.477833	1806.508789	109.275024
-7411.914043	4211.477833	1805.508789	-86.844795
-7411.914043	4211.477833	1804.508789	27.636282
-7411.914043	4211.477833	1803.507813	-96.806381
-7411.914043	4211.477833	1802.506836	77.266373
-7411.914043	4211.477833	1801.505859	100.824074
-7411.914043	4211.477833	1800.504883	121.950470
-7411.914043	4211.477833	1799.502930	-88.470970
-7411.914043	4211.477833	1798.501953	23.291206
-7411.914043	4211.477833	1797.500000	77.717949
-7411.914043	4211.477833	1796.498047	22.364862
-7411.914043	4211.477833	1795.496094	-159.399124
-7411.914043	4211.477833	1794.493164	88.061264
-7411.914043	4211.477833	1793.491211	-12.662806
-7411.914043	4211.477833	1792.488281	77.295059
-7411.914043	4211.477833	1791.485352	-114.017181
-7411.914043	4211.477833	1790.482422	218.878815
-7411.914043	4211.477833	1789.478516	6.098628
-7411.914043	4211.477833	1788.475586	181.581451
-7411.914043	4211.477833	1787.471680	-52.615250
-7411.914043	4211.477833	1786.467773	-143.912064
-7411.914043	4211.477833	1785.463867	-132.856018
-7411.914043	4211.477833	1784.459961	-67.104500
-7411.914043	4211.477833	1783.455078	24.757698
-7411.914043	4211.477833	1782.450195	-147.520920
-7411.914043	4211.477833	1781.445313	37.009693
-7411.914043	4211.477833	1780.440430	-11.620311
-7411.914043	4211.477833	1779.435547	-86.424736
-7411.914043	4211.477833	1778.429688	-101.809830
-7411.914043	4211.477833	1777.424805	44.391972
-7411.914043	4211.477833	1776.418945	-16.239159
-7411.914043	4211.477833	1775.413086	-50.751301
-7411.914043	4211.477833	1774.406250	16.850538
-7411.914043	4211.477833	1773.400391	-134.103668
-7411.914043	4211.477833	1772.393555	-45.218575
-7411.914043	4211.477833	1771.386719	45.966682
-7411.914043	4211.477833	1770.379883	-126.387825
-7411.914043	4211.477833	1769.373047	-68.523392
-7411.914043	4211.477833	1768.365234	-22.585840
-7411.914043	4211.477833	1767.358398	-5.170500
-7411.914043	4211.477833	1766.350586	31.171268
-7411.914043	4211.477833	1765.342773	76.944527
-7411.914043	4211.477833	1764.334961	32.568165
-7411.914043	4211.477833	1763.326172	118.539749
-7411.914043	4211.477833	1762.318359	145.191116
-7411.914043	4211.477833	1761.309570	136.246902
-7411.914043	4211.477833	1760.300781	11.182134
-7411.914043	4211.477833	1759.291016	115.879005
-7411.914043	4211.477833	1758.282227	194.447983
-7411.914043	4211.477833	1757.272461	95.365387
-7411.914043	4211.477833	1756.262695	-48.698277
-7411.914043	4211.477833	1755.252930	81.803848
-7411.914043	4211.477833	1754.243164	-43.351875
-7411.914043	4211.477833	1753.233398	63.359943
-7411.914043	4211.477833	1752.222656	-2.691397
-7411.914043	4211.477833	1751.211914	101.523193
-7411.914043	4211.477833	1750.201172	61.418766
-7411.914043	4211.477833	1749.190430	2.377188
-7411.914043	4211.477833	1748.179688	-103.956001
-7411.914043	4211.477833	1747.167969	-37.777111
-7411.914043	4211.477833	1746.156250	42.512508
-7411.914043	4211.477833	1745.144531	-11.921079
-7411.914043	4211.477833	1744.132813	280.819641
-7411.914043	4211.477833	1743.121094	-19.306309
-7411.914043	4211.477833	1742.108398	30.062248
-7411.914043	4211.477833	1741.095703	13.276116
-7411.914043	4211.477833	1740.083008	128.620529
-7411.914043	4211.477833	1739.070313	-25.115385
-7411.914043	4211.477833	1738.057617	28.773548
-7411.914043	4211.477833	1737.043945	-155.630966
-7411.914043	4211.477833	1736.030273	176.452744
-7411.914043	4211.477833	1735.016602	15.588264
-7411.914043	4211.477833	1734.002930	-1.455744
-7411.914043	4211.477833	1732.989258	78.100128
-7411.914043	4211.477833	1731.974609	-33.290508
-7411.914043	4211.477833	1730.959961	50.870071
-7411.914043	4211.477833	1729.945313	19.537067
-7411.914043	4211.477833	1728.930664	87.091476
-7411.914043	4211.477833	1727.916016	60.393780
-7411.914043	4211.477833	1726.900391	10.122060
-7411.914043	4211.477833	1725.885742	-23.690769
-7411.914043	4211.477833	1724.870117	-41.058838
-7411.914043	4211.477833	1723.853516	89.766930
-7411.914043	4211.477833	1722.837891	11.142920
-7411.914043	4211.477833	1721.822266	-91.008690
-7411.914043	4211.477833	1720.805664	-30.909428
-7411.914043	4211.477833	1719.789063	-36.701740
-7411.914043	4211.477833	1718.772461	270.100891
-7411.914043	4211.477833	1717.754883	-24.895035
-7411.914043	4211.477833	1716.738281	4.447612
-7411.914043	4211.477833	1715.720703	17.291847
-7411.914043	4211.477833	1714.703125	-49.765327
-7411.914043	4211.477833	1713.685547	61.641533
-7411.914043	4211.477833	1712.667969	-167.478561
-7411.914043	4211.477833	1711.649414	-63.212639
-7411.914043	4211.477833	1710.630859	90.264015
-7411.914043	4211.477833	1709.612305	203.753387
-7411.914043	4211.477833	1708.593750	110.705902
-7411.914043	4211.477833	1707.575195	-19.872332
-7411.914043	4211.477833	1706.555664	109.876846
-7411.914043	4211.477833	1705.536133	173.887695
-7411.914043	4211.477833	1704.516602	8.096992
-7411.914043	4211.477833	1703.497070	-17.034060
-7411.914043	4211.477833	1702.477539	138.251648
-7411.914043	4211.477833	1701.457031	59.143185
-7411.914043	4211.477833	1700.437500	12.830558
-7411.914043	4211.477833	1699.416992	-0.714601
-7411.914043	4211.477833	1698.395508	77.030365
-7411.914043	4211.477833	1697.375000	4.881611
-7411.914043	4211.477833	1696.354492	-20.458130
-7411.914043	4211.477833	1695.333008	155.436401
-7411.914043	4211.477833	1694.311523	-15.061655
-7411.914043	4211.477833	1693.290039	83.500145
-7411.914043	4211.477833	1692.267578	345.710083
-7411.914043	4211.477833	1691.246094	102.685493
-7411.914043	4211.477833	1690.223633	259.517639
-7411.914043	4211.477833	1689.201172	138.087616
-7411.914043	4211.477833	1688.178711	168.586182
-7411.914043	4211.477833	1687.155273	124.263641
-7411.914043	4211.477833	1686.132813	252.812790
-7411.914043	4211.477833	1685.109375	194.416428
-7411.914043	4211.477833	1684.085938	194.395294
-7411.914043	4211.477833	1683.062500	98.615959
-7411.914043	4211.477833	1682.039063	170.921524
-7411.914043	4211.477833	1681.014648	149.807281
-7411.914043	4211.477833	1679.990234	170.676086
-7411.914043	4211.477833	1678.965820	368.821259
-7411.914043	4211.477833	1677.941406	317.273499
-7411.914043	4211.477833	1676.916992	226.070236
-7411.914043	4211.477833	1675.891602	260.782837
-7411.914043	4211.477833	1674.866211	353.738098
-7411.914043	4211.477833	1673.840820	101.668907
-7411.914043	4211.477833	1672.815430	259.816803
-7411.914043	4211.477833	1671.790039	289.732025
-7411.914043	4211.477833	1670.763672	133.247498
-7411.914043	4211.477833	1669.737305	116.540802
-7411.914043	4211.477833	1668.710938	36.943398
-7411.914043	4211.477833	1667.684570	273.979126
-7411.914043	4211.477833	1666.658203	98.900368
-7411.914043	4211.477833	1665.630859	233.381790
-7411.914043	4211.477833	1664.603516	190.953613
-7411.914043	4211.477833	1663.576172	392.783234
-7411.914043	4211.477833	1662.548828	282.845734
-7411.914043	4211.477833	1661.520508	421.744415
-7411.914043	4211.477833	1660.493164	407.125427
-7411.914043	4211.477833	1659.464844	515.685242
-7411.914043	4211.477833	1658.436523	317.405426
-7411.914043	4211.477833	1657.408203	212.126221
-7411.914043	4211.477833	1656.378906	339.181366
-7411.914043	4211.477833	1655.350586	468.497467
-7411.914043	4211.477833	1654.321289	479.302155
-7411.914043	4211.477833	1653.291992	158.062317
-7411.914043	4211.477833	1652.261719	396.377289
-7411.914043	4211.477833	1651.232422	453.555695
-7411.914043	4211.477833	1650.202148	399.305450
-7411.914043	4211.477833	1649.171875	493.542786
-7411.914043	4211.477833	1648.141602	399.840454
-7411.914043	4211.477833	1647.111328	424.436218
-7411.914043	4211.477833	1646.080078	636.815063
-7411.914043	4211.477833	1645.049805	448.046539
-7411.914043	4211.477833	1644.018555	444.755371
-7411.914043	4211.477833	1642.987305	371.931213
-7411.914043	4211.477833	1641.955078	408.011108
-7411.914043	4211.477833	1640.923828	441.753143
-7411.914043	4211.477833	1639.891602	496.308441
-7411.914043	4211.477833	1638.859375	627.243774
-7411.914043	4211.477833	1637.827148	589.115234
-7411.914043	4211.477833	1636.794922	463.033752
-7411.914043	4211.477833	1635.761719	478.151184
-7411.914043	4211.477833	1634.729492	303.531433
-7411.914043	4211.477833	1633.696289	369.547119
-7411.914043	4211.477833	1632.662109	380.015167
-7411.914043	4211.477833	1631.628906	443.661530
-7411.914043	4211.477833	1630.594727	597.436096
-7411.914043	4211.477833	1629.561523	466.833313
-7411.914043	4211.477833	1628.527344	546.575500
-7411.914043	4211.477833	1627.493164	439.121185
-7411.914043	4211.477833	1626.458008	463.376099
-7411.914043	4211.477833	1625.423828	573.081909
-7411.914043	4211.477833	1624.388672	606.528259
-7411.914043	4211.477833	1623.353516	681.515503
-7411.914043	4211.477833	1622.318359	726.461975
-7411.914043	4211.477833	1621.282227	508.279480
-7411.914043	4211.477833	1620.247070	809.364868
-7411.914043	4211.477833	1619.210938	925.762756
-7411.914043	4211.477833	1618.174805	739.953979
-7411.914043	4211.477833	1617.137695	826.331726
-7411.914043	4211.477833	1616.101563	956.490295
-7411.914043	4211.477833	1615.064453	853.763123
-7411.914043	4211.477833	1614.027344	873.229858
-7411.914043	4211.477833	1612.990234	906.516052
-7411.914043	4211.477833	1611.953125	879.889771
-7411.914043	4211.477833	1610.916016	1083.619141
-7411.914043	4211.477833	1609.877930	1241.205688
-7411.914043	4211.477833	1608.839844	1122.429199
-7411.914043	4211.477833	1607.801758	1254.630981
-7411.914043	4211.477833	1606.763672	1322.337891
-7411.914043	4211.477833	1605.724609	1224.333008
-7411.914043	4211.477833	1604.685547	1107.965088
-7411.914043	4211.477833	1603.646484	991.647888
-7411.914043	4211.477833	1602.607422	976.575378
-7411.914043	4211.477833	1601.568359	1230.543823
-7411.914043	4211.477833	1600.528320	1215.438721
-7411.914043	4211.477833	1599.489258	1133.695923
-7411.914043	4211.477833	1598.449219	1194.467529
-7411.914043	4211.477833	1597.408203	1179.396606
-7411.914043	4211.477833	1596.368164	1311.364380
-7411.914043	4211.477833	1595.327148	1179.164551
-7411.914043	4211.477833	1594.287109	1049.327637
-7411.914043	4211.477833	1593.246094	1162.902344
-7411.914043	4211.477833	1592.204102	1166.261353
-7411.914043	4211.477833	1591.163086	1089.315796
-7411.914043	4211.477833	1590.121094	1152.367432
-7411.914043	4211.477833	1589.079102	1158.058350
-7411.914043	4211.477833	1588.037109	1289.906372
-7411.914043	4211.477833	1586.995117	1247.439575
-7411.914043	4211.477833	1585.953125	1188.955200
-7411.914043	4211.477833	1584.910156	1077.783325
-7411.914043	4211.477833	1583.867188	1383.771729
-7411.914043	4211.477833	1582.824219	1084.748047
-7411.914043	4211.477833	1581.781250	1113.452148
-7411.914043	4211.477833	1580.737305	1155.899536
-7411.914043	4211.477833	1579.693359	1136.519043
-7411.914043	4211.477833	1578.649414	1034.741943
-7411.914043	4211.477833	1577.605469	914.710266
-7411.914043	4211.477833	1576.561523	991.567078
-7411.914043	4211.477833	1575.516602	889.929626
-7411.914043	4211.477833	1574.472656	1257.343262
-7411.914043	4211.477833	1573.427734	1100.839966
-7411.914043	4211.477833	1572.381836	843.794128
-7411.914043	4211.477833	1571.336914	1032.720825
-7411.914043	4211.477833	1570.291016	906.131531
-7411.914043	4211.477833	1569.246094	813.901428
-7411.914043	4211.477833	1568.200195	749.147522
-7411.914043	4211.477833	1567.153320	711.851868
-7411.914043	4211.477833	1566.107422	797.945190
-7411.914043	4211.477833	1565.060547	662.505554
-7411.914043	4211.477833	1564.013672	648.155823
-7411.914043	4211.477833	1562.966797	611.010742
-7411.914043	4211.477833	1561.919922	665.200623
-7411.914043	4211.477833	1560.872070	714.826477
-7411.914043	4211.477833	1559.825195	766.747375
-7411.914043	4211.477833	1558.777344	841.481201
-7411.914043	4211.477833	1557.729492	752.013855
-7411.914043	4211.477833	1556.680664	803.971863
-7411.914043	4211.477833	1555.632813	698.647583
-7411.914043	4211.477833	1554.583984	784.843445
-7411.914043	4211.477833	1553.535156	675.061707
-7411.914043	4211.477833	1552.486328	733.950317
-7411.914043	4211.477833	1551.436523	713.116394
-7411.914043	4211.477833	1550.387695	790.256287
-7411.914043	4211.477833	1549.337891	623.756714
-7411.914043	4211.477833	1548.288086	630.372681
-7411.914043	4211.477833	1547.238281	577.840027
-7411.914043	4211.477833	1546.187500	743.817749
-7411.914043	4211.477833	1545.136719	652.669250
-7411.914043	4211.477833	1544.086914	529.750122
-7411.914043	4211.477833	1543.035156	318.207458
-7411.914043	4211.477833	1541.984375	306.886169
-7411.914043	4211.477833	1540.933594	297.878937
-7411.914043	4211.477833	1539.881836	429.829224
-7411.914043	4211.477833	1538.830078	227.707733
-7411.914043	4211.477833	1537.778320	430.128143
-7411.914043	4211.477833	1536.725586	366.724365
-7411.914043	4211.477833	1535.673828	280.678101
-7411.914043	4211.477833	1534.621094	251.466751
-7411.914043	4211.477833	1533.568359	190.522629
-7411.914043	4211.477833	1532.515625	215.894974
-7411.914043	4211.477833	1531.461914	345.682709
-7411.914043	4211.477833	1530.409180	255.380615
-7411.914043	4211.477833	1529.355469	246.815079
-7411.914043	4211.477833	1528.301758	340.354767
-7411.914043	4211.477833	1527.247070	254.757889
-7411.914043	4211.477833	1526.193359	337.007233
-7411.914043	4211.477833	1525.138672	337.661865
-7411.914043	4211.477833	1524.083984	308.898895
-7411.914043	4211.477833	1523.029297	352.696228
-7411.914043	4211.477833	1521.974609	99.761223
-7411.914043	4211.477833	1520.918945	245.585754
-7411.914043	4211.477833	1519.863281	126.458069
-7411.914043	4211.477833	1518.807617	247.404877
-7411.914043	4211.477833	1517.751953	42.400154
-7411.914043	4211.477833	1516.696289	36.673737
-7411.914043	4211.477833	1515.639648	92.082909
-7411.914043	4211.477833	1514.583008	-74.178078
-7411.914043	4211.477833	1513.526367	-5.104985
-7411.914043	4211.477833	1512.469727	-89.779518
-7411.914043	4211.477833	1511.412109	-154.029785
-7411.914043	4211.477833	1510.355469	-179.776703
-7411.914043	4211.477833	1509.297852	-11.112289
-7411.914043	4211.477833	1508.240234	89.748215
-7411.914043	4211.477833	1507.181641	-130.170563
-7411.914043	4211.477833	1506.124023	-26.969643
-7411.914043	4211.477833	1505.065430	-54.735802
-7411.914043	4211.477833	1504.006836	-16.967667
-7411.914043	4211.477833	1502.948242	-15.281167
-7411.914043	4211.477833	1501.888672	15.790910
-7411.914043	4211.477833	1500.830078	98.801353
-7411.914043	4211.477833	1499.770508	48.727306
-7411.914043	4211.477833	1498.710938	-152.391052
-7411.914043	4211.477833	1497.650391	9.677345
-7411.914043	4211.477833	1496.590820	-112.340332
-7411.914043	4211.477833	1495.530273	-110.281982
-7411.914043	4211.477833	1494.469727	18.032976
-7411.914043	4211.477833	1493.409180	-272.749695
-7411.914043	4211.477833	1492.348633	-333.580963
-7411.914043	4211.477833	1491.287109	-81.261696
-7411.914043	4211.477833	1490.225586	-27.155481
-7411.914043	4211.477833	1489.164063	-47.314831
-7411.914043	4211.477833	1488.102539	-130.438751
-7411.914043	4211.477833	1487.041016	-28.930334
-7411.914043	4211.477833	1485.978516	-143.419357
-7411.914043	4211.477833	1484.916016	36.896336
-7411.914043	4211.477833	1483.853516	66.498390
-7411.914043	4211.477833	1482.791016	102.894806
-7411.914043	4211.477833	1481.727539	-20.296915
-7411.914043	4211.477833	1480.664063	115.096245
-7411.914043	4211.477833	1479.600586	84.220947
-7411.914043	4211.477833	1478.537109	96.090057
-7411.914043	4211.477833	1477.473633	69.784798
-7411.914043	4211.477833	1476.409180	200.816467
-7411.914043	4211.477833	1475.344727	244.201538
-7411.914043	4211.477833	1474.280273	173.224350
-7411.914043	4211.477833	1473.215820	266.149689
-7411.914043	4211.477833	1472.151367	146.066544
-7411.914043	4211.477833	1471.085938	324.225769
-7411.914043	4211.477833	1470.020508	477.584869
-7411.914043	4211.477833	1468.955078	209.836441
-7411.914043	4211.477833	1467.888672	450.877838
-7411.914043	4211.477833	1466.823242	373.665649
-7411.914043	4211.477833	1465.756836	515.812988
-7411.914043	4211.477833	1464.690430	420.740021
-7411.914043	4211.477833	1463.624023	433.414642
-7411.914043	4211.477833	1462.556641	419.123169
-7411.914043	4211.477833	1461.490234	557.086243
-7411.914043	4211.477833	1460.422852	330.975159
-7411.914043	4211.477833	1459.355469	381.684357
-7411.914043	4211.477833	1458.287109	309.153717
-7411.914043	4211.477833	1457.219727	304.409058
-7411.914043	4211.477833	1456.151367	411.313477
-7411.914043	4211.477833	1455.083008	322.197723
-7411.914043	4211.477833	1454.014648	348.296265
-7411.914043	4211.477833	1452.945313	365.235748
-7411.914043	4211.477833	1451.876953	472.298187
-7411.914043	4211.477833	1450.807617	461.406799
-7411.914043	4211.477833	1449.738281	469.081512
-7411.914043	4211.477833	1448.668945	518.522522
-7411.914043	4211.477833	1447.598633	513.871460
-7411.914043	4211.477833	1446.528320	311.266113
-7411.914043	4211.477833	1445.458008	424.477051
-7411.914043	4211.477833	1444.387695	540.370483
-7411.914043	4211.477833	1443.317383	345.971771
-7411.914043	4211.477833	1442.246094	280.611206
-7411.914043	4211.477833	1441.174805	268.066040
-7411.914043	4211.477833	1440.103516	272.598938
-7411.914043	4211.477833	1439.032227	168.321198
-7411.914043	4211.477833	1437.960938	148.947632
-7411.914043	4211.477833	1436.888672	186.165222
-7411.914043	4211.477833	1435.816406	312.107330
-7411.914043	4211.477833	1434.744141	192.601089
-7411.914043	4211.477833	1433.670898	280.360931
-7411.914043	4211.477833	1432.598633	149.839645
-7411.914043	4211.477833	1431.525391	135.780762
-7411.914043	4211.477833	1430.452148	24.276293
-7411.914043	4211.477833	1429.378906	1.482432
-7411.914043	4211.477833	1428.304688	120.221321
-7411.914043	4211.477833	1427.231445	94.421722
-7411.914043	4211.477833	1426.157227	10.327662
-7411.914043	4211.477833	1425.083008	-149.760132
-7411.914043	4211.477833	1424.007813	-7.804471
-7411.914043	4211.477833	1422.933594	-43.121193
-7411.914043	4211.477833	1421.858398	69.054649
-7411.914043	4211.477833	1420.783203	-47.171768
-7411.914043	4211.477833	1419.708008	7.084195
-7411.914043	4211.477833	1418.631836	-44.065800
-7411.914043	4211.477833	1417.555664	165.418777
-7411.914043	4211.477833	1416.479492	63.266319
-7411.914043	4211.477833	1415.403320	220.811630
-7411.914043	4211.477833	1414.327148	206.997925
-7411.914043	4211.477833	1413.250000	254.289642
-7411.914043	4211.477833	1412.173828	229.234070
-7411.914043	4211.477833	1411.096680	107.206543
-7411.914043	4211.477833	1410.018555	110.029350
-7411.914043	4211.477833	1408.941406	51.090221
-7411.914043	4211.477833	1407.863281	144.882034
-7411.914043	4211.477833	1406.785156	115.746483
-7411.914043	4211.477833	1405.707031	34.170681
-7411.914043	4211.477833	1404.628906	220.289200
-7411.914043	4211.477833	1403.549805	106.872589
-7411.914043	4211.477833	1402.470703	-24.259182
-7411.914043	4211.477833	1401.391602	107.066536
-7411.914043	4211.477833	1400.312500	7.107334
-7411.914043	4211.477833	1399.233398	61.490929
-7411.914043	4211.477833	1398.153320	184.232239
-7411.914043	4211.477833	1397.073242	138.390198
-7411.914043	4211.477833	1395.993164	47.527103
-7411.914043	4211.477833	1394.913086	94.218864
-7411.914043	4211.477833	1393.832031	-56.662964
-7411.914043	4211.477833	1392.750977	-39.479580
-7411.914043	4211.477833	1391.669922	-60.238071
-7411.914043	4211.477833	1390.588867	-154.618393
-7411.914043	4211.477833	1389.506836	12.333238
-7411.914043	4211.477833	1388.425781	-19.464317
-7411.914043	4211.477833	1387.343750	53.097946
-7411.914043	4211.477833	1386.261719	66.508110
-7411.914043	4211.477833	1385.178711	-69.104103
-7411.914043	4211.477833	1384.096680	-131.821213
-7411.914043	4211.477833	1383.013672	-103.485001
-7411.914043	4211.477833	1381.930664	-20.344921
-7411.914043	4211.477833	1380.846680	191.759201
-7411.914043	4211.477833	1379.763672	203.974930
-7411.914043	4211.477833	1378.679688	197.241089
-7411.914043	4211.477833	1377.595703	252.805099
-7411.914043	4211.477833	1376.511719	195.016266
-7411.914043	4211.477833	1375.427734	219.930908
-7411.914043	4211.477833	1374.342773	277.603973
-7411.914043	4211.477833	1373.257813	385.971130
-7411.914043	4211.477833	1372.172852	291.129730
-7411.914043	4211.477833	1371.087891	184.144867
-7411.914043	4211.477833	1370.001953	188.627304
-7411.914043	4211.477833	1368.916992	369.510742
-7411.914043	4211.477833	1367.831055	357.534698
-7411.914043	4211.477833	1366.744141	185.049576
-7411.914043	4211.477833	1365.658203	190.817841
-7411.914043	4211.477833	1364.571289	321.082214
-7411.914043	4211.477833	1363.484375	129.763290
-7411.914043	4211.477833	1362.397461	169.936890
-7411.914043	4211.477833	1361.310547	175.308670
-7411.914043	4211.477833	1360.222656	296.567902
-7411.914043	4211.477833	1359.135742	351.134766
-7411.914043	4211.477833	1358.047852	186.150894
-7411.914043	4211.477833	1356.958984	216.664856
-7411.914043	4211.477833	1355.871094	25.148298
-7411.914043	4211.477833	1354.782227	152.397415
-7411.914043	4211.477833	1353.693359	-3.895144
-7411.914043	4211.477833	1352.604492	193.145187
-7411.914043	4211.477833	1351.515625	188.699661
-7411.914043	4211.477833	1350.425781	24.702013
-7411.914043	4211.477833	1349.335938	-11.731472
-7411.914043	4211.477833	1348.246094	152.439804
-7411.914043	4211.477833	1347.156250	-34.501385
-7411.914043	4211.477833	1346.066406	38.665245
-7411.914043	4211.477833	1344.975586	154.986893
-7411.914043	4211.477833	1343.884766	131.665573
-7411.914043	4211.477833	1342.793945	99.935211
-7411.914043	4211.477833	1341.702148	226.691757
-7411.914043	4211.477833	1340.611328	219.515091
-7411.914043	4211.477833	1339.519531	33.808895
-7411.914043	4211.477833	1338.427734	30.766176
-7411.914043	4211.477833	1337.334961	135.254684
-7411.914043	4211.477833	1336.243164	124.207527
-7411.914043	4211.477833	1335.150391	176.015945
-7411.914043	4211.477833	1334.057617	175.203857
-7411.914043	4211.477833	1332.964844	73.163391
-7411.914043	4211.477833	1331.871094	221.322006
-7411.914043	4211.477833	1330.778320	296.422028
-7411.914043	4211.477833	1329.684570	164.800354
-7411.914043	4211.477833	1328.590820	135.492401
-7411.914043	4211.477833	1327.496094	209.015640
-7411.914043	4211.477833	1326.402344	287.104309
-7411.914043	4211.477833	1325.307617	144.143341
-7411.914043	4211.477833	1324.212891	277.244293
-7411.914043	4211.477833	1323.117188	256.578949
-7411.914043	4211.477833	1322.022461	157.098129
-7411.914043	4211.477833	1320.926758	58.911633
-7411.914043	4211.477833	1319.831055	151.677704
-7411.914043	4211.477833	1318.735352	174.490585
-7411.914043	4211.477833	1317.638672	142.718506
-7411.914043	4211.477833	1316.542969	145.721161
-7411.914043	4211.477833	1315.446289	207.808838
-7411.914043	4211.477833	1314.349609	177.585892
-7411.914043	4211.477833	1313.251953	75.301529
-7411.914043	4211.477833	1312.155273	171.390427
-7411.914043	4211.477833	1311.057617	214.594696
-7411.914043	4211.477833	1309.959961	89.001999
-7411.914043	4211.477833	1308.862305	188.372559
-7411.914043	4211.477833	1307.763672	212.050430
-7411.914043	4211.477833	1306.665039	284.086090
-7411.914043	4211.477833	1305.566406	331.998566
-7411.914043	4211.477833	1304.467773	110.575401
-7411.914043	4211.477833	1303.369141	3.612967
-7411.914043	4211.477833	1302.269531	225.493500
-7411.914043	4211.477833	1301.169922	240.674576
-7411.914043	4211.477833	1300.070313	217.781662
-7411.914043	4211.477833	1298.970703	110.202904
-7411.914043	4211.477833	1297.870117	101.578415
-7411.914043	4211.477833	1296.769531	171.931137
-7411.914043	4211.477833	1295.668945	29.117945
-7411.914043	4211.477833	1294.568359	44.778950
-7411.914043	4211.477833	1293.466797	89.076797
-7411.914043	4211.477833	1292.366211	-43.789982
-7411.914043	4211.477833	1291.264648	-6.034620
-7411.914043	4211.477833	1290.162109	91.266235
-7411.914043	4211.477833	1289.060547	-8.422395
-7411.914043	4211.477833	1287.958008	61.952965
-7411.914043	4211.477833	1286.855469	89.098671
-7411.914043	4211.477833	1285.752930	117.430206
-7411.914043	4211.477833	1284.650391	139.435318
-7411.914043	4211.477833	1283.546875	191.797302
-7411.914043	4211.477833	1282.444336	281.280792
-7411.914043	4211.477833	1281.339844	148.211166
-7411.914043	4211.477833	1280.236328	128.656525
-7411.914043	4211.477833	1279.132813	139.254257
-7411.914043	4211.477833	1278.028320	151.148651
-7411.914043	4211.477833	1276.923828	60.753941
-7411.914043	4211.477833	1275.819336	138.983658
-7411.914043	4211.477833	1274.713867	148.335617
-7411.914043	4211.477833	1273.608398	63.758217
-7411.914043	4211.477833	1272.503906	158.570908
-7411.914043	4211.477833	1271.397461	117.390343
-7411.914043	4211.477833	1270.291992	147.789230
-7411.914043	4211.477833	1269.185547	251.576309
-7411.914043	4211.477833	1268.080078	184.253281
-7411.914043	4211.477833	1266.972656	77.127319
-7411.914043	4211.477833	1265.866211	109.416557
-7411.914043	4211.477833	1264.759766	187.907913
-7411.914043	4211.477833	1263.652344	90.926445
-7411.914043	4211.477833	1262.544922	133.261292
-7411.914043	4211.477833	1261.436523	184.528519
-7411.914043	4211.477833	1260.329102	51.571548
-7411.914043	4211.477833	1259.220703	81.766609
-7411.914043	4211.477833	1258.112305	61.501461
-7411.914043	4211.477833	1257.003906	41.103706
-7411.914043	4211.477833	1255.895508	-34.431095
-7411.914043	4211.477833	1254.786133	89.440887
-7411.914043	4211.477833	1253.676758	122.905251
-7411.914043	4211.477833	1252.567383	30.451706
-7411.914043	4211.477833	1251.458008	181.884430
-7411.914043	4211.477833	1250.347656	-26.203936
-7411.914043	4211.477833	1249.237305	45.073399
-7411.914043	4211.477833	1248.126953	72.900475
-7411.914043	4211.477833	1247.016602	69.809021
-7411.914043	4211.477833	1245.905273	94.310616
-7411.914043	4211.477833	1244.793945	42.353584
-7411.914043	4211.477833	1243.682617	276.091705
-7411.914043	4211.477833	1242.571289	48.121159
-7411.914043	4211.477833	1241.459961	71.158226
-7411.914043	4211.477833	1240.347656	153.861954
-7411.914043	4211.477833	1239.235352	244.551788
-7411.914043	4211.477833	1238.123047	168.460617
-7411.914043	4211.477833	1237.009766	148.834366
-7411.914043	4211.477833	1235.897461	119.723633
-7411.914043	4211.477833	1234.784180	189.431320
-7411.914043	4211.477833	1233.670898	175.648972
-7411.914043	4211.477833	1232.556641	209.527786
-7411.914043	4211.477833	1231.443359	165.254135
-7411.914043	4211.477833	1230.329102	252.730499
-7411.914043	4211.477833	1229.214844	74.214882
-7411.914043	4211.477833	1228.099609	82.524445
-7411.914043	4211.477833	1226.985352	38.984329
-7411.914043	4211.477833	1225.870117	106.353386
-7411.914043	4211.477833	1224.754883	184.474625
-7411.914043	4211.477833	1223.639648	153.411026
-7411.914043	4211.477833	1222.523438	7.595977
-7411.914043	4211.477833	1221.408203	6.720912
-7411.914043	4211.477833	1220.291992	145.627609
-7411.914043	4211.477833	1219.174805	-7.599472
-7411.914043	4211.477833	1218.058594	50.597427
-7411.914043	4211.477833	1216.941406	124.836372
-7411.914043	4211.477833	1215.824219	130.322784
-7411.914043	4211.477833	1214.707031	207.964401
-7411.914043	4211.477833	1213.589844	179.275452
-7411.914043	4211.477833	1212.471680	158.600327
-7411.914043	4211.477833	1211.353516	155.869080
-7411.914043	4211.477833	1210.235352	70.787384
-7411.914043	4211.477833	1209.117188	160.959259
-7411.914043	4211.477833	1207.998047	157.027893
-7411.914043	4211.477833	1206.878906	146.027924
-7411.914043	4211.477833	1205.759766	104.313454
-7411.914043	4211.477833	1204.640625	151.189697
-7411.914043	4211.477833	1203.520508	61.696270
-7411.914043	4211.477833	1202.401367	94.320107
-7411.914043	4211.477833	1201.281250	14.713054
-7411.914043	4211.477833	1200.160156	-35.485703
-7411.914043	4211.477833	1199.040039	3.332010
-7411.914043	4211.477833	1197.918945	-77.478951
-7411.914043	4211.477833	1196.797852	82.406326
-7411.914043	4211.477833	1195.676758	-77.680534
-7411.914043	4211.477833	1194.555664	-146.160797
-7411.914043	4211.477833	1193.433594	73.331131
-7411.914043	4211.477833	1192.311523	-98.701027
-7411.914043	4211.477833	1191.189453	-85.538910
-7411.914043	4211.477833	1190.066406	71.705513
-7411.914043	4211.477833	1188.944336	-62.672649
-7411.914043	4211.477833	1187.821289	-77.686081
-7411.914043	4211.477833	1186.698242	-208.032120
-7411.914043	4211.477833	1185.574219	-9.065001
-7411.914043	4211.477833	1184.451172	1.189293
-7411.914043	4211.477833	1183.327148	-120.015488
-7411.914043	4211.477833	1182.203125	0.114644
-7411.914043	4211.477833	1181.078125	-127.286354
-7411.914043	4211.477833	1179.954102	-117.329216
-7411.914043	4211.477833	1178.829102	-163.698837
-7411.914043	4211.477833	1177.704102	-99.868698
-7411.914043	4211.477833	1176.579102	-76.359612
-7411.914043	4211.477833	1175.453125	-136.193024
-7411.914043	4211.477833	1174.327148	-20.367704
-7411.914043	4211.477833	1173.201172	8.857261
-7411.914043	4211.477833	1172.075195	-50.373901
-7411.914043	4211.477833	1170.949219	-21.761675
-7411.914043	4211.477833	1169.822266	-120.649872
-7411.914043	4211.477833	1168.695313	-92.690430
-7411.914043	4211.477833	1167.568359	-111.151207
-7411.914043	4211.477833	1166.440430	-9.746203
-7411.914043	4211.477833	1165.313477	-73.385178
-7411.914043	4211.477833	1164.185547	-129.602325
-7411.914043	4211.477833	1163.057617	-146.223236
-7411.914043	4211.477833	1161.928711	-77.586029
-7411.914043	4211.477833	1160.800781	-83.235962
-7411.914043	4211.477833	1159.671875	-91.552170
-7411.914043	4211.477833	1158.541992	-110.659981
-7411.914043	4211.477833	1157.413086	-136.985306
-7411.914043	4211.477833	1156.283203	37.652119
-7411.914043	4211.477833	1155.154297	-113.824852
-7411.914043	4211.477833	1154.023438	-90.710854
-7411.914043	4211.477833	1152.893555	-68.350365
-7411.914043	4211.477833	1151.763672	-136.146088
-7411.914043	4211.477833	1150.632813	30.145628
-7411.914043	4211.477833	1149.501953	-18.593361
-7411.914043	4211.477833	1148.370117	-202.651688
-7411.914043	4211.477833	1147.239258	-151.019104
-7411.914043	4211.477833	1146.107422	58.781021
-7411.914043	4211.477833	1144.975586	66.623840
-7411.914043	4211.477833	1143.843750	1.460367
-7411.914043	4211.477833	1142.710938	-165.488403
-7411.914043	4211.477833	1141.578125	-88.394058
-7411.914043	4211.477833	1140.445313	-19.211847
-7411.914043	4211.477833	1139.312500	-37.097183
-7411.914043	4211.477833	1138.178711	-118.199295
-7411.914043	4211.477833	1137.045898	1.846202
-7411.914043	4211.477833	1135.912109	-61.675026
-7411.914043	4211.477833	1134.777344	75.483856
-7411.914043	4211.477833	1133.643555	163.401321
-7411.914043	4211.477833	1132.508789	23.305225
-7411.914043	4211.477833	1131.374023	214.034088
-7411.914043	4211.477833	1130.239258	181.903229
-7411.914043	4211.477833	1129.104492	209.049255
-7411.914043	4211.477833	1127.968750	274.449646
-7411.914043	4211.477833	1126.833008	220.340546
-7411.914043	4211.477833	1125.697266	373.851746
-7411.914043	4211.477833	1124.560547	272.243835
-7411.914043	4211.477833	1123.424805	302.446503
-7411.914043	4211.477833	1122.288086	297.599213
-7411.914043	4211.477833	1121.151367	96.979271
-7411.914043	4211.477833	1120.013672	278.424316
-7411.914043	4211.477833	1118.876953	275.766693
-7411.914043	4211.477833	1117.739258	206.509811
-7411.914043	4211.477833	1116.601563	165.557175
-7411.914043	4211.477833	1115.462891	126.359558
-7411.914043	4211.477833	1114.324219	329.261932
-7411.914043	4211.477833	1113.186523	262.238312
-7411.914043	4211.477833	1112.046875	280.022797
-7411.914043	4211.477833	1110.908203	338.073669
-7411.914043	4211.477833	1109.769531	188.884583
-7411.914043	4211.477833	1108.629883	208.927689
-7411.914043	4211.477833	1107.490234	292.004242
-7411.914043	4211.477833	1106.349609	120.153656
-7411.914043	4211.477833	1105.209961	217.338089
-7411.914043	4211.477833	1104.069336	229.511383
-7411.914043	4211.477833	1102.928711	228.334305
-7411.914043	4211.477833	1101.787109	150.021957
-7411.914043	4211.477833	1100.646484	266.488953
-7411.914043	4211.477833	1099.504883	128.752350
-7411.914043	4211.477833	1098.363281	188.186935
-7411.914043	4211.477833	1097.221680	174.377747
-7411.914043	4211.477833	1096.079102	242.702805
-7411.914043	4211.477833	1094.936523	211.939407
-7411.914043	4211.477833	1093.793945	159.418671
-7411.914043	4211.477833	1092.651367	29.786182
-7411.914043	4211.477833	1091.507813	173.372971
-7411.914043	4211.477833	1090.364258	191.893021
-7411.914043	4211.477833	1089.220703	208.303467
-7411.914043	4211.477833	1088.077148	259.157104
-7411.914043	4211.477833	1086.933594	-16.600632
-7411.914043	4211.477833	1085.789063	336.256653
-7411.914043	4211.477833	1084.644531	249.362076
-7411.914043	4211.477833	1083.499023	82.459564
-7411.914043	4211.477833	1082.354492	148.641678
-7411.914043	4211.477833	1081.208984	360.309174
-7411.914043	4211.477833	1080.063477	232.155930
-7411.914043	4211.477833	1078.917969	263.808990
-7411.914043	4211.477833	1077.771484	170.550247
-7411.914043	4211.477833	1076.625977	211.503845
-7411.914043	4211.477833	1075.479492	273.163055
-7411.914043	4211.477833	1074.332031	263.502533
-7411.914043	4211.477833	1073.185547	350.157410
-7411.914043	4211.477833	1072.038086	299.693024
-7411.914043	4211.477833	1070.890625	204.854279
-7411.914043	4211.477833	1069.743164	221.330811
-7411.914043	4211.477833	1068.594727	344.982391
-7411.914043	4211.477833	1067.447266	286.454254
-7411.914043	4211.477833	1066.298828	258.235260
-7411.914043	4211.477833	1065.149414	251.775696
-7411.914043	4211.477833	1064.000977	402.373383
-7411.914043	4211.477833	1062.851563	208.593170
-7411.914043	4211.477833	1061.702148	236.249588
-7411.914043	4211.477833	1060.552734	169.326263
-7411.914043	4211.477833	1059.402344	256.228638
-7411.914043	4211.477833	1058.252930	158.905258
-7411.914043	4211.477833	1057.102539	112.919685
-7411.914043	4211.477833	1055.951172	302.784790
-7411.914043	4211.477833	1054.800781	117.081078
-7411.914043	4211.477833	1053.649414	259.297791
-7411.914043	4211.477833	1052.498047	102.002693
-7411.914043	4211.477833	1051.346680	229.527084
-7411.914043	4211.477833	1050.194336	187.062332
-7411.914043	4211.477833	1049.042969	162.571167
-7411.914043	4211.477833	1047.890625	265.674347
-7411.914043	4211.477833	1046.738281	308.269867
-7411.914043	4211.477833	1045.584961	252.795135
-7411.914043	4211.477833	1044.431641	318.571075
-7411.914043	4211.477833	1043.278320	150.560837
-7411.914043	4211.477833	1042.125000	166.301834
-7411.914043	4211.477833	1040.971680	-18.941963
-7411.914043	4211.477833	1039.817383	119.150475
-7411.914043	4211.477833	1038.663086	25.919779
-7411.914043	4211.477833	1037.508789	151.785202
-7411.914043	4211.477833	1036.353516	427.548157
-7411.914043	4211.477833	1035.198242	349.677368
-7411.914043	4211.477833	1034.042969	240.424042
-7411.914043	4211.477833	1032.887695	271.739716
-7411.914043	4211.477833	1031.732422	129.736008
-7411.914043	4211.477833	1030.576172	98.458427
-7411.914043	4211.477833	1029.419922	285.167755
-7411.914043	4211.477833	1028.263672	152.734421
-7411.914043	4211.477833	1027.106445	206.469467
-7411.914043	4211.477833	1025.949219	159.727539
-7411.914043	4211.477833	1024.792969	130.250076
-7411.914043	4211.477833	1023.634766	251.988907
-7411.914043	4211.477833	1022.477539	95.884483
-7411.914043	4211.477833	1021.319336	196.384583
-7411.914043	4211.477833	1020.161133	54.961147
-7411.914043	4211.477833	1019.002930	100.700470
-7411.914043	4211.477833	1017.843750	5.779648
-7411.914043	4211.477833	1016.684570	133.059372
-7411.914043	4211.477833	1015.525391	222.147430
-7411.914043	4211.477833	1014.366211	322.311798
-7411.914043	4211.477833	1013.207031	144.661194
-7411.914043	4211.477833	1012.046875	248.409760
-7411.914043	4211.477833	1010.886719	243.616547
-7411.914043	4211.477833	1009.726563	338.962585
-7411.914043	4211.477833	1008.565430	327.453979
-7411.914043	4211.477833	1007.404297	327.602936
-7411.914043	4211.477833	1006.243164	266.150055
-7411.914043	4211.477833	1005.082031	207.929779
-7411.914043	4211.477833	1003.920898	225.794983
-7411.914043	4211.477833	1002.758789	154.635452
-7411.914043	4211.477833	1001.596680	77.178368
-7411.914043	4211.477833	1000.433594	109.925781
-7411.914043	4211.477833	999.271484	187.206833
-7411.914043	4211.477833	998.108398	132.016388
-7411.914043	4211.477833	996.945313	72.672546
-7411.914043	4211.477833	995.782227	86.627869
-7411.914043	4211.477833	994.618164	153.130402
-7411.914043	4211.477833	993.454102	149.306885
-7411.914043	4211.477833	992.290039	296.880402
-7411.914043	4211.477833	991.125977	224.879700
-7411.914043	4211.477833	989.960938	359.461945
-7411.914043	4211.477833	988.796875	127.248543
-7411.914043	4211.477833	987.630859	80.553940
-7411.914043	4211.477833	986.465820	-82.217667
-7411.914043	4211.477833	985.300781	-82.508736
-7411.914043	4211.477833	984.134766	-4.938513
-7411.914043	4211.477833	982.968750	-2.906469
-7411.914043	4211.477833	981.801758	34.333359
-7411.914043	4211.477833	980.635742	18.802992
-7411.914043	4211.477833	979.468750	-13.759985
-7411.914043	4211.477833	978.301758	99.797745
-7411.914043	4211.477833	977.133789	219.696716
-7411.914043	4211.477833	975.966797	156.686584
-7411.914043	4211.477833	974.798828	5.206013
-7411.914043	4211.477833	973.630859	119.396652
-7411.914043	4211.477833	972.461914	79.951645
-7411.914043	4211.477833	971.293945	92.732063
-7411.914043	4211.477833	970.125000	107.423569
-7411.914043	4211.477833	968.956055	174.955933
-7411.914043	4211.477833	967.786133	3.078908
-7411.914043	4211.477833	966.617188	87.358704
-7411.914043	4211.477833	965.447266	384.965302
-7411.914043	4211.477833	964.276367	-57.333324
-7411.914043	4211.477833	963.106445	55.106228
-7411.914043	4211.477833	961.935547	168.035919
-7411.914043	4211.477833	960.764648	30.118011
-7411.914043	4211.477833	959.593750	144.398804
-7411.914043	4211.477833	958.422852	204.867020
-7411.914043	4211.477833	957.250977	26.701042
-7411.914043	4211.477833	956.079102	136.814133
-7411.914043	4211.477833	954.907227	80.920570
-7411.914043	4211.477833	953.734375	-48.072739
-7411.914043	4211.477833	952.562500	-80.856293
-7411.914043	4211.477833	951.389648	72.662605
-7411.914043	4211.477833	950.215820	214.223618
-7411.914043	4211.477833	949.042969	108.449722
-7411.914043	4211.477833	947.869141	27.269548
-7411.914043	4211.477833	946.695313	-3.741547
-7411.914043	4211.477833	945.521484	77.094582
-7411.914043	4211.477833	944.346680	-76.841545
-7411.914043	4211.477833	943.172852	90.149239
-7411.914043	4211.477833	941.998047	72.810951
-7411.914043	4211.477833	940.822266	185.365677
-7411.914043	4211.477833	939.647461	54.196167
-7411.914043	4211.477833	938.471680	178.002502
-7411.914043	4211.477833	937.295898	110.700851
-7411.914043	4211.477833	936.119141	136.398285
-7411.914043	4211.477833	934.943359	137.301788
-7411.914043	4211.477833	933.766602	79.011787
-7411.914043	4211.477833	932.589844	95.880997
-7411.914043	4211.477833	931.413086	37.557255
-7411.914043	4211.477833	930.235352	20.249193
-7411.914043	4211.477833	929.057617	62.033123
-7411.914043	4211.477833	927.879883	24.300043
-7411.914043	4211.477833	926.702148	88.817902
-7411.914043	4211.477833	925.523438	162.471130
-7411.914043	4211.477833	924.344727	226.960983
-7411.914043	4211.477833	923.166016	164.223404
-7411.914043	4211.477833	921.987305	15.185489
-7411.914043	4211.477833	920.807617	152.383041
-7411.914043	4211.477833	919.627930	152.730194
-7411.914043	4211.477833	919.497070	173.763184
-7411.914043	4211.477833	918.331055	47.525547
-7411.914043	4211.477833	917.165039	-19.636156
-7411.914043	4211.477833	915.999023	-30.027254
-7411.914043	4211.477833	914.833008	-176.543900
-7411.914043	4211.477833	913.666016	89.873131
-7411.914043	4211.477833	912.499023	-13.499775
-7411.914043	4211.477833	911.332031	-26.118355
-7411.914043	4211.477833	910.165039	47.427856
-7411.914043	4211.477833	908.997070	18.953972
-7411.914043	4211.477833	907.830078	-72.952515
-7411.914043	4211.477833	906.661133	20.979319
-7411.914043	4211.477833	905.493164	62.780903
-7411.914043	4211.477833	904.325195	158.932388
-7411.914043	4211.477833	903.156250	132.781128
-7411.914043	4211.477833	901.987305	131.553604
-7411.914043	4211.477833	900.818359	-16.783113
-7411.914043	4211.477833	899.648438	-33.796684
-7411.914043	4211.477833	898.478516	103.058655
-7411.914043	4211.477833	897.308594	52.122025
-7411.914043	4211.477833	896.138672	10.264794
-7411.914043	4211.477833	894.968750	-167.229095
-7411.914043	4211.477833	893.797852	-154.742706
-7411.914043	4211.477833	892.626953	58.909313
-7411.914043	4211.477833	891.456055	64.592422
-7411.914043	4211.477833	890.284180	90.620369
-7411.914043	4211.477833	889.113281	127.946465
-7411.914043	4211.477833	887.941406	43.320999
-7411.914043	4211.477833	886.768555	28.739361
-7411.914043	4211.477833	885.596680	52.554173
-7411.914043	4211.477833	884.423828	65.090019
-7411.914043	4211.477833	883.250977	-50.984512
-7411.914043	4211.477833	882.078125	-2.304960
-7411.914043	4211.477833	880.905273	-41.597691
-7411.914043	4211.477833	879.731445	133.378357
-7411.914043	4211.477833	878.557617	37.740925
-7411.914043	4211.477833	877.383789	-28.538139
-7411.914043	4211.477833	876.209961	-18.145178
-7411.914043	4211.477833	875.035156	-30.272692
-7411.914043	4211.477833	873.860352	-96.446091
-7411.914043	4211.477833	872.685547	-54.462574
-7411.914043	4211.477833	871.510742	-80.035378
-7411.914043	4211.477833	870.334961	4.740208
-7411.914043	4211.477833	869.159180	-72.570976
-7411.914043	4211.477833	867.983398	-21.554737
-7411.914043	4211.477833	866.807617	-96.543465
-7411.914043	4211.477833	865.630859	-65.752533
-7411.914043	4211.477833	864.454102	14.523932
-7411.914043	4211.477833	863.277344	-10.900978
-7411.914043	4211.477833	862.100586	116.580261
-7411.914043	4211.477833	860.922852	25.997925
-7411.914043	4211.477833	859.745117	-228.580887
-7411.914043	4211.477833	858.567383	-159.494446
-7411.914043	4211.477833	857.389648	48.856426
-7411.914043	4211.477833	856.210938	-41.562904
-7411.914043	4211.477833	855.032227	-28.636089
-7411.914043	4211.477833	853.853516	-15.696078
-7411.914043	4211.477833	852.674805	107.239601
-7411.914043	4211.477833	851.495117	-54.850956
-7411.914043	4211.477833	850.315430	-23.906672
-7411.914043	4211.477833	849.135742	47.420635
-7411.914043	4211.477833	847.956055	35.758427
-7411.914043	4211.477833	846.775391	24.121460
-7411.914043	4211.477833	845.595703	-43.535824
-7411.914043	4211.477833	844.415039	-66.319679
-7411.914043	4211.477833	843.233398	18.485769
-7411.914043	4211.477833	842.052734	103.274788
-7411.914043	4211.477833	840.871094	-38.181370
-7411.914043	4211.477833	839.689453	122.764618
-7411.914043	4211.477833	838.506836	158.282822
-7411.914043	4211.477833	837.325195	137.839645
-7411.914043	4211.477833	836.142578	128.617096
-7411.914043	4211.477833	834.959961	-95.393394
-7411.914043	4211.477833	833.777344	27.464867
-7411.914043	4211.477833	832.593750	2.672076
-7411.914043	4211.477833	831.410156	13.687388
-7411.914043	4211.477833	830.226563	29.189438
-7411.914043	4211.477833	829.042969	122.938881
-7411.914043	4211.477833	827.858398	64.700623
-7411.914043	4211.477833	826.673828	17.677368
-7411.914043	4211.477833	825.489258	80.154175
-7411.914043	4211.477833	824.304688	6.381915
-7411.914043	4211.477833	823.120117	73.337997
-7411.914043	4211.477833	821.934570	80.008072
-7411.914043	4211.477833	820.749023	37.586926
-7411.914043	4211.477833	819.562500	21.983072
-7411.914043	4211.477833	818.376953	48.794121
-7411.914043	4211.477833	817.190430	42.152660
-7411.914043	4211.477833	816.003906	64.523903
-7411.914043	4211.477833	814.817383	48.998508
-7411.914043	4211.477833	813.629883	-26.694183
-7411.914043	4211.477833	812.442383	-31.014803
-7411.914043	4211.477833	811.254883	138.498383
-7411.914043	4211.477833	810.067383	-97.525436
-7411.914043	4211.477833	808.878906	7.369192
-7411.914043	4211.477833	807.690430	14.248413
-7411.914043	4211.477833	806.501953	-43.428032
-7411.914043	4211.477833	805.313477	97.056923
-7411.914043	4211.477833	804.124023	135.121155
-7411.914043	4211.477833	802.934570	-7.052094
-7411.914043	4211.477833	801.745117	157.858231
-7411.914043	4211.477833	800.555664	-106.564140
-7411.914043	4211.477833	799.365234	-23.950142
-7411.914043	4211.477833	798.175781	-117.000092
-7411.914043	4211.477833	796.985352	-58.840343
-7411.914043	4211.477833	795.793945	-127.366158
-7411.914043	4211.477833	794.603516	-55.868778
-7411.914043	4211.477833	793.412109	-44.366100
-7411.914043	4211.477833	792.220703	162.595459
-7411.914043	4211.477833	791.028320	-90.171150
-7411.914043	4211.477833	789.836914	118.959717
-7411.914043	4211.477833	788.644531	123.811035
-7411.914043	4211.477833	787.452148	-46.642689
-7411.914043	4211.477833	786.258789	49.234276
-7411.914043	4211.477833	785.066406	-76.745529
-7411.914043	4211.477833	783.873047	-5.275188
-7411.914043	4211.477833	782.679688	-53.560913
-7411.914043	4211.477833	781.485352	13.464178
-7411.914043	4211.477833	780.291992	-41.433846
-7411.914043	4211.477833	779.097656	61.035854
-7411.914043	4211.477833	777.903320	90.361351
-7411.914043	4211.477833	776.708008	70.954254
-7411.914043	4211.477833	775.512695	-85.740364
-7411.914043	4211.477833	774.318359	-27.593878
-7411.914043	4211.477833	773.122070	-64.647041
-7411.914043	4211.477833	771.926758	-119.384796
-7411.914043	4211.477833	770.730469	67.098030
-7411.914043	4211.477833	769.534180	30.069683
-7411.914043	4211.477833	768.337891	81.535606
-7411.914043	4211.477833	767.141602	-50.556858
-7411.914043	4211.477833	765.944336	-67.620323
-7411.914043	4211.477833	764.747070	36.902493
-7411.914043	4211.477833	763.549805	152.436935
-7411.914043	4211.477833	762.351563	-3.842218
-7411.914043	4211.477833	761.154297	-45.183308
-7411.914043	4211.477833	759.956055	-51.164059
-7411.914043	4211.477833	758.757813	9.104788
-7411.914043	4211.477833	757.558594	-164.661942
-7411.914043	4211.477833	756.359375	94.261406
-7411.914043	4211.477833	755.160156	-125.788696
-7411.914043	4211.477833	753.960938	73.450935
-7411.914043	4211.477833	752.761719	52.024281
-7411.914043	4211.477833	751.561523	-103.920769
-7411.914043	4211.477833	750.361328	-81.201530
-7411.914043	4211.477833	749.160156	84.799133
-7411.914043	4211.477833	747.959961	50.162876
-7411.914043	4211.477833	746.758789	-112.264717
-7411.914043	4211.477833	745.557617	-96.176964
-7411.914043	4211.477833	744.356445	-119.745743
-7411.914043	4211.477833	743.154297	-103.667427
-7411.914043	4211.477833	741.952148	-69.986404
-7411.914043	4211.477833	740.750000	20.909126
-7411.914043	4211.477833	739.547852	120.565033
-7411.914043	4211.477833	738.344727	-120.875725
-7411.914043	4211.477833	737.142578	79.950752
-7411.914043	4211.477833	735.939453	210.306961
-7411.914043	4211.477833	734.735352	-105.782730
-7411.914043	4211.477833	733.532227	-122.755173
-7411.914043	4211.477833	732.328125	20.729219
-7411.914043	4211.477833	731.124023	199.306259
-7411.914043	4211.477833	729.918945	92.177429
-7411.914043	4211.477833	728.714844	66.357597
-7411.914043	4211.477833	727.509766	205.254639
-7411.914043	4211.477833	726.303711	74.009125
-7411.914043	4211.477833	725.098633	72.326370
-7411.914043	4211.477833	723.892578	121.115677
-7411.914043	4211.477833	722.686523	88.680382
-7411.914043	4211.477833	721.480469	111.093674
-7411.914043	4211.477833	720.274414	39.165558
-7411.914043	4211.477833	719.067383	61.553959
-7411.914043	4211.477833	717.860352	35.682861
-7411.914043	4211.477833	716.653320	29.535603
-7411.914043	4211.477833	715.445313	113.232964
-7411.914043	4211.477833	714.238281	58.834980
-7411.914043	4211.477833	713.030273	39.495834
-7411.914043	4211.477833	711.821289	90.235954
-7411.914043	4211.477833	710.613281	-64.902626
-7411.914043	4211.477833	709.404297	-84.255539
-7411.914043	4211.477833	708.195313	-29.198994
-7411.914043	4211.477833	706.986328	-9.199349
-7411.914043	4211.477833	705.776367	-61.428425
-7411.914043	4211.477833	704.566406	-177.092453
-7411.914043	4211.477833	703.356445	-124.329681
-7411.914043	4211.477833	702.146484	-27.879881
-7411.914043	4211.477833	700.935547	-163.217194
-7411.914043	4211.477833	699.724609	44.624104
-7411.914043	4211.477833	698.513672	60.058998
-7411.914043	4211.477833	697.302734	16.476133
-7411.914043	4211.477833	696.090820	-81.717346
-7411.914043	4211.477833	694.878906	-16.110327
-7411.914043	4211.477833	693.666992	49.443642
-7411.914043	4211.477833	692.455078	82.200394
-7411.914043	4211.477833	691.242188	82.182243
-7411.914043	4211.477833	690.029297	-20.415426
-7411.914043	4211.477833	688.816406	82.063614
-7411.914043	4211.477833	687.602539	101.592789
-7411.914043	4211.477833	686.389648	-62.085350
-7411.914043	4211.477833	685.175781	227.743134
-7411.914043	4211.477833	683.960938	122.901909
-7411.914043	4211.477833	682.747070	74.732788
-7411.914043	4211.477833	681.532227	33.090202
-7411.914043	4211.477833	680.317383	139.557938
-7411.914043	4211.477833	679.102539	169.724396
-7411.914043	4211.477833	677.886719	252.104340
-7411.914043	4211.477833	676.670898	184.209854
-7411.914043	4211.477833	675.455078	299.132782
-7411.914043	4211.477833	674.239258	133.269638
-7411.914043	4211.477833	673.022461	139.310898
-7411.914043	4211.477833	671.805664	136.614471
-7411.914043	4211.477833	670.588867	209.996353
-7411.914043	4211.477833	669.372070	-23.246038
-7411.914043	4211.477833	668.154297	145.710983
-7411.914043	4211.477833	666.936523	110.274284
-7411.914043	4211.477833	665.718750	124.790657
-7411.914043	4211.477833	664.500977	193.571213
-7411.914043	4211.477833	663.282227	240.567474
-7411.914043	4211.477833	662.063477	519.846619
-7411.914043	4211.477833	660.844727	395.171509
-7411.914043	4211.477833	659.625000	370.354858
-7411.914043	4211.477833	658.405273	276.066528
-7411.914043	4211.477833	657.185547	266.393097
-7411.914043	4211.477833	655.965820	141.718979
-7411.914043	4211.477833	654.745117	155.852951
-7411.914043	4211.477833	653.525391	109.229675
-7411.914043	4211.477833	652.303711	244.676941
-7411.914043	4211.477833	651.083008	70.102188
-7411.914043	4211.477833	649.861328	14.735955
-7411.914043	4211.477833	648.640625	13.509786
-7411.914043	4211.477833	647.417969	51.229134
-7411.914043	4211.477833	646.196289	28.256462
-7411.914043	4211.477833	644.973633	-25.059258
-7411.914043	4211.477833	643.750977	36.324875
-7411.914043	4211.477833	642.528320	60.850033
-7411.914043	4211.477833	641.305664	-31.514282
-7411.914043	4211.477833	640.082031	-48.172958
-7411.914043	4211.477833	638.858398	32.453213
-7411.914043	4211.477833	637.634766	-42.681854
-7411.914043	4211.477833	636.410156	260.485138
-7411.914043	4211.477833	635.185547	137.694183
-7411.914043	4211.477833	633.960938	49.484680
-7411.914043	4211.477833	632.736328	21.759310
-7411.914043	4211.477833	631.510742	251.035385
-7411.914043	4211.477833	630.285156	-14.358057
-7411.914043	4211.477833	629.059570	121.898224
-7411.914043	4211.477833	627.833984	-31.200762
-7411.914043	4211.477833	626.607422	35.849022
-7411.914043	4211.477833	625.380859	14.359232
-7411.914043	4211.477833	624.154297	-22.268332
-7411.914043	4211.477833	622.927734	-52.456566
-7411.914043	4211.477833	621.700195	-145.211304
-7411.914043	4211.477833	620.472656	-143.116196
-7411.914043	4211.477833	619.245117	-102.271347
-7411.914043	4211.477833	618.016602	-63.646034
-7411.914043	4211.477833	616.788086	-31.546904
-7411.914043	4211.477833	615.559570	-102.900681
-7411.914043	4211.477833	614.331055	92.770233
-7411.914043	4211.477833	613.101563	264.627289
-7411.914043	4211.477833	611.872070	89.788422
-7411.914043	4211.477833	610.642578	-69.956787
-7411.914043	4211.477833	609.413086	-38.177052
-7411.914043	4211.477833	608.182617	83.895462
-7411.914043	4211.477833	606.952148	42.408127
-7411.914043	4211.477833	605.721680	-48.565670
-7411.914043	4211.477833	604.491211	23.845324
-7411.914043	4211.477833	603.259766	53.190121
-7411.914043	4211.477833	602.028320	232.905350
-7411.914043	4211.477833	600.796875	-49.435043
-7411.914043	4211.477833	599.564453	52.803326
-7411.914043	4211.477833	598.332031	54.015251
-7411.914043	4211.477833	597.099609	121.742973
-7411.914043	4211.477833	595.867188	13.368105
-7411.914043	4211.477833	594.633789	-90.713814
-7411.914043	4211.477833	593.400391	4.762335
-7411.914043	4211.477833	592.166992	27.212378
-7411.914043	4211.477833	590.933594	98.941811
-7411.914043	4211.477833	589.699219	-67.434654
-7411.914043	4211.477833	588.464844	237.887833
-7411.914043	4211.477833	587.230469	69.323708
-7411.914043	4211.477833	585.995117	-56.351734
-7411.914043	4211.477833	584.760742	-38.460926
-7411.914043	4211.477833	583.525391	118.618134
-7411.914043	4211.477833	582.289063	84.977562
-7411.914043	4211.477833	581.053711	-34.336170
-7411.914043	4211.477833	579.817383	-38.040092
-7411.914043	4211.477833	578.581055	7.444471
-7411.914043	4211.477833	577.343750	25.050417
-7411.914043	4211.477833	576.107422	-8.733602
-7411.914043	4211.477833	574.870117	66.541718
-7411.914043	4211.477833	573.631836	77.590683
-7411.914043	4211.477833	572.394531	103.565247
-7411.914043	4211.477833	571.156250	43.987331
-7411.914043	4211.477833	569.917969	127.584358
-7411.914043	4211.477833	568.679688	91.456993
-7411.914043	4211.477833	567.440430	159.981384
-7411.914043	4211.477833	566.202148	-89.781960
-7411.914043	4211.477833	564.961914	-6.372344
-7411.914043	4211.477833	563.722656	38.543259
-7411.914043	4211.477833	562.482422	66.329262
-7411.914043	4211.477833	561.243164	59.930225
-7411.914043	4211.477833	560.001953	81.233345
-7411.914043	4211.477833	558.761719	17.177956
-7411.914043	4211.477833	557.520508	25.623938
-7411.914043	4211.477833	556.279297	-12.869819
-7411.914043	4211.477833	555.038086	-36.454460
-7411.914043	4211.477833	553.795898	50.761662
-7411.914043	4211.477833	552.554688	-85.811668
-7411.914043	4211.477833	551.311523	122.746567
-7411.914043	4211.477833	550.069336	-67.084724
-7411.914043	4211.477833	548.826172	162.622009
-7411.914043	4211.477833	547.583984	158.027710
-7411.914043	4211.477833	546.339844	81.040504
-7411.914043	4211.477833	545.096680	176.431580
-7411.914043	4211.477833	543.852539	141.978455
-7411.914043	4211.477833	542.608398	158.567978
-7411.914043	4211.477833	541.364258	147.482208
-7411.914043	4211.477833	540.119141	74.721092
-7411.914043	4211.477833	538.875000	-61.797768
-7411.914043	4211.477833	537.628906	156.637177
-7411.914043	4211.477833	536.383789	47.743290
-7411.914043	4211.477833	535.137695	104.576241
-7411.914043	4211.477833	533.892578	-38.274868
-7411.914043	4211.477833	532.645508	-40.937954
-7411.914043	4211.477833	531.399414	-35.119831
-7411.914043	4211.477833	530.152344	91.664314
-7411.914043	4211.477833	528.905273	8.295664
-7411.914043	4211.477833	527.658203	58.613461
-7411.914043	4211.477833	526.410156	38.897858
-7411.914043	4211.477833	525.163086	25.544724
-7411.914043	4211.477833	523.914063	46.107632
-7411.914043	4211.477833	522.666016	-47.813423
-7411.914043	4211.477833	521.416992	-8.185384
-7411.914043	4211.477833	520.167969	31.418879
-7411.914043	4211.477833	518.918945	-13.737092
-7411.914043	4211.477833	517.669922	85.143440
-7411.914043	4211.477833	516.419922	173.387955
-7411.914043	4211.477833	515.169922	238.302963
-7411.914043	4211.477833	513.919922	191.007446
-7411.914043	4211.477833	512.668945	249.535889
-7411.914043	4211.477833	511.417969	223.410141
-7411.914043	4211.477833	510.166992	300.942505
-7411.914043	4211.477833	508.916016	433.426727
-7411.914043	4211.477833	507.664063	345.961731
-7411.914043	4211.477833	506.412109	410.736298
-7411.914043	4211.477833	505.160156	293.730621
-7411.914043	4211.477833	503.907227	423.994812
-7411.914043	4211.477833	502.655273	205.644791
-7411.914043	4211.477833	501.402344	105.665642
-7411.914043	4211.477833	500.148438	170.439896
-7411.914043	4211.477833	498.895508	59.968224
-7411.914043	4211.477833	497.641602	198.612610
-7411.914043	4211.477833	496.387695	328.763794
-7411.914043	4211.477833	495.132813	456.754974
-7411.914043	4211.477833	493.878906	580.484070
-7411.914043	4211.477833	492.624023	820.154846
-7411.914043	4211.477833	491.368164	760.333313
-7411.914043	4211.477833	490.113281	717.414368
-7411.914043	4211.477833	488.857422	704.027527
-7411.914043	4211.477833	487.601563	593.733215
-7411.914043	4211.477833	486.344727	550.907349
-7411.914043	4211.477833	485.088867	358.576630
-7411.914043	4211.477833	483.832031	277.942657
-7411.914043	4211.477833	482.575195	191.039352
-7411.914043	4211.477833	481.317383	253.626389
-7411.914043	4211.477833	480.059570	160.477798
-7411.914043	4211.477833	478.801758	48.448254
-7411.914043	4211.477833	477.543945	92.134544
-7411.914043	4211.477833	476.285156	18.047226
-7411.914043	4211.477833	475.027344	-26.557220
-7411.914043	4211.477833	473.767578	40.277401
-7411.914043	4211.477833	472.508789	155.436630
-7411.914043	4211.477833	471.249023	20.519432
-7411.914043	4211.477833	469.989258	-55.507286
-7411.914043	4211.477833	468.729492	-53.777054
-7411.914043	4211.477833	467.469727	-127.628044
-7411.914043	4211.477833	466.208984	-136.356201
-7411.914043	4211.477833	464.948242	-56.914352
-7411.914043	4211.477833	463.686523	-74.025307
-7411.914043	4211.477833	462.425781	-196.015427
-7411.914043	4211.477833	461.164063	-154.335846
-7411.914043	4211.477833	459.901367	-28.782118
-7411.914043	4211.477833	458.639648	-66.809311
-7411.914043	4211.477833	457.376953	-54.503967
-7411.914043	4211.477833	456.114258	33.249352
-7411.914043	4211.477833	454.851563	30.874466
-7411.914043	4211.477833	453.587891	-74.142494
-7411.914043	4211.477833	452.324219	-66.013504
-7411.914043	4211.477833	451.060547	-9.724191
-7411.914043	4211.477833	449.796875	38.169430
-7411.914043	4211.477833	448.532227	-22.796082
-7411.914043	4211.477833	447.267578	-29.330162
-7411.914043	4211.477833	446.002930	-29.587755
-7411.914043	4211.477833	444.737305	133.298447
-7411.914043	4211.477833	443.471680	86.986877
-7411.914043	4211.477833	442.206055	115.954094
-7411.914043	4211.477833	440.940430	48.745907
-7411.914043	4211.477833	439.673828	25.438148
-7411.914043	4211.477833	438.407227	137.936844
-7411.914043	4211.477833	437.140625	-2.392226
-7411.914043	4211.477833	435.873047	-115.532234
-7411.914043	4211.477833	434.605469	17.742813
-7411.914043	4211.477833	433.337891	29.855925
-7411.914043	4211.477833	432.070313	-47.811050
-7411.914043	4211.477833	430.801758	-54.530941
-7411.914043	4211.477833	429.533203	-255.301376
-7411.914043	4211.477833	428.264648	11.192203
-7411.914043	4211.477833	426.996094	35.630375
-7411.914043	4211.477833	425.726563	-48.401497
-7411.914043	4211.477833	424.457031	132.275726
-7411.914043	4211.477833	423.186523	12.726965
-7411.914043	4211.477833	421.916992	99.445076
-7411.914043	4211.477833	420.646484	-24.328087
-7411.914043	4211.477833	419.375977	10.165191
-7411.914043	4211.477833	418.104492	123.693085
-7411.914043	4211.477833	416.833008	-160.510376
-7411.914043	4211.477833	415.561523	115.188469
-7411.914043	4211.477833	414.290039	66.076469
-7411.914043	4211.477833	413.017578	10.650285
-7411.914043	4211.477833	411.746094	-88.523590
-7411.914043	4211.477833	410.472656	65.930931
-7411.914043	4211.477833	409.200195	-0.161058
-7411.914043	4211.477833	407.926758	-20.614567
-7411.914043	4211.477833	406.653320	-109.757195
-7411.914043	4211.477833	405.379883	-30.699057
-7411.914043	4211.477833	404.105469	64.804436
-7411.914043	4211.477833	402.831055	91.591286
-7411.914043	4211.477833	401.556641	22.706940
-7411.914043	4211.477833	400.282227	78.247391
-7411.914043	4211.477833	399.006836	11.145263
-7411.914043	4211.477833	397.731445	49.722404
-7411.914043	4211.477833	396.456055	48.685383
-7411.914043	4211.477833	395.179688	151.157043
-7411.914043	4211.477833	393.903320	97.865097
-7411.914043	4211.477833	392.626953	63.046547
-7411.914043	4211.477833	391.350586	-135.718094
-7411.914043	4211.477833	390.073242	-36.225708
-7411.914043	4211.477833	388.795898	-57.177818
-7411.914043	4211.477833	387.518555	118.407555
-7411.914043	4211.477833	386.240234	-37.690769
-7411.914043	4211.477833	384.961914	201.463974
-7411.914043	4211.477833	383.683594	92.473923
-7411.914043	4211.477833	382.405273	51.533695
-7411.914043	4211.477833	381.125977	159.274475
-7411.914043	4211.477833	379.846680	30.824915
-7411.914043	4211.477833	378.567383	-87.557877
-7411.914043	4211.477833	377.287109	-16.006237
-7411.914043	4211.477833	376.006836	53.089626
-7411.914043	4211.477833	374.726563	32.909573
-7411.914043	4211.477833	373.446289	130.138962
-7411.914043	4211.477833	372.165039	1.731724
-7411.914043	4211.477833	370.883789	3.091207
-7411.914043	4211.477833	369.602539	103.141861
-7411.914043	4211.477833	368.320313	93.271988
-7411.914043	4211.477833	367.039063	31.350456
-7411.914043	4211.477833	365.755859	-57.869347
-7411.914043	4211.477833	364.473633	-9.298636
-7411.914043	4211.477833	363.190430	143.930206
-7411.914043	4211.477833	361.907227	40.831272
-7411.914043	4211.477833	360.624023	-62.772526
-7411.914043	4211.477833	359.340820	183.547714
-7411.914043	4211.477833	358.056641	70.547707
-7411.914043	4211.477833	356.772461	12.625137
-7411.914043	4211.477833	355.487305	104.474251
-7411.914043	4211.477833	354.202148	154.441849
-7411.914043	4211.477833	352.916992	251.080414
-7411.914043	4211.477833	351.631836	388.159729
-7411.914043	4211.477833	350.346680	244.536957
-7411.914043	4211.477833	349.060547	310.126831
-7411.914043	4211.477833	347.774414	401.674500
-7411.914043	4211.477833	346.487305	311.368805
-7411.914043	4211.477833	345.200195	423.887543
-7411.914043	4211.477833	343.913086	247.675034
-7411.914043	4211.477833	342.625977	58.345901
-7411.914043	4211.477833	341.338867	394.337463
-7411.914043	4211.477833	340.050781	377.893036
-7411.914043	4211.477833	338.762695	531.019714
-7411.914043	4211.477833	337.473633	294.918091
-7411.914043	4211.477833	336.184570	304.325897
-7411.914043	4211.477833	334.895508	411.242767
-7411.914043	4211.477833	333.606445	451.377777
-7411.914043	4211.477833	332.317383	328.297729
-7411.914043	4211.477833	331.027344	146.683289
-7411.914043	4211.477833	329.736328	175.236053
-7411.914043	4211.477833	328.446289	200.568893
-7411.914043	4211.477833	327.155273	210.292648
-7411.914043	4211.477833	325.864258	79.373581
-7411.914043	4211.477833	324.573242	201.344070
-7411.914043	4211.477833	323.281250	-34.601578
-7411.914043	4211.477833	321.989258	25.220272
-7411.914043	4211.477833	320.697266	85.667877
-7411.914043	4211.477833	319.405273	64.797981
-7411.914043	4211.477833	318.112305	1.487056
-7411.914043	4211.477833	316.819336	-57.172100
-7411.914043	4211.477833	315.526367	1.320179
-7411.914043	4211.477833	314.232422	-134.150925
-7411.914043	4211.477833	312.938477	0.825637
-7411.914043	4211.477833	311.644531	-45.888706
-7411.914043	4211.477833	310.349609	-43.241306
-7411.914043	4211.477833	309.054688	41.435787
-7411.914043	4211.477833	307.759766	-120.967392
-7411.914043	4211.477833	306.464844	-50.208153
-7411.914043	4211.477833	305.168945	-112.169701
-7411.914043	4211.477833	303.873047	13.856635
-7411.914043	4211.477833	302.577148	156.192764
-7411.914043	4211.477833	301.281250	155.555206
-7411.914043	4211.477833	299.984375	144.585983
